Polling Station No,KAMARAJ. R,THENMOZHI DILIPKUMAR,MOHAMED MUBARAK,SIVARAMAN. T,TAMILSELVAN. M,PRABHAKARAN. S,RAJA. S,SANKAR. R,SHANMUGARAJA. D,SURESH. V,BHARATHIMOHAN. K.S,MOHUMED RIYAS. K,RAVICHANDRAN. R,RAJASEKAR. R,Total Valid Votes,Rejected Votes,NOTA,Total,Tendered Votes
1,448,41,189,1,0,266,0,0,0,1,0,0,0,2,948,0,5,953,0
2,377,34,182,0,0,227,0,0,0,0,0,0,0,0,820,0,3,823,0
3,359,31,199,0,2,218,1,4,0,1,1,0,1,2,819,0,1,820,0
4,380,22,177,0,0,201,0,0,0,0,0,0,2,1,783,0,2,785,0
5,348,50,185,0,0,187,1,0,0,1,0,1,1,1,775,0,1,776,0
6,384,51,200,0,1,189,0,0,0,0,0,0,0,0,825,0,6,831,0
7,350,22,122,0,1,170,0,1,0,0,2,0,0,0,668,0,4,672,0
8,376,28,146,0,0,186,1,1,0,1,0,1,0,0,740,0,2,742,0
9,274,32,168,1,1,195,1,0,0,1,0,0,1,0,674,0,3,677,0
10,303,27,107,0,0,199,2,1,0,0,0,0,1,1,641,0,4,645,0
11,312,25,138,0,0,136,0,0,0,0,0,0,0,0,611,0,2,613,0
12,316,24,85,1,1,170,1,0,0,0,0,0,0,0,598,0,2,600,0
13,270,22,89,0,0,152,0,0,0,0,0,0,0,1,534,0,4,538,0
14,389,32,119,0,1,227,0,0,0,0,0,1,0,3,772,0,3,775,0
15,122,8,359,1,0,103,0,0,0,0,1,0,0,0,594,0,2,596,0
16,158,21,397,1,0,95,0,0,0,0,0,0,0,0,672,0,3,675,0
17,357,26,247,0,0,160,2,0,1,0,0,0,3,0,796,0,3,799,0
18,25,14,508,2,0,69,1,1,0,0,0,2,0,0,622,0,0,622,0
19,316,37,305,1,0,145,4,1,0,0,0,0,2,1,812,0,5,817,0
20,219,17,114,1,0,114,0,0,0,0,0,0,0,1,466,0,2,468,0
21,69,5,372,0,0,58,0,0,0,0,0,0,0,0,504,0,1,505,0
22,56,7,538,0,0,77,0,0,0,0,0,1,0,0,679,0,1,680,0
23,295,22,163,1,0,129,0,0,0,0,1,0,0,2,613,0,5,618,0
24,216,24,164,2,0,147,1,0,0,1,1,0,0,1,557,0,1,558,0
25,364,44,202,0,0,220,7,2,2,0,1,1,2,0,845,0,1,846,0
26,245,35,142,1,0,182,10,0,0,0,0,0,0,0,615,0,2,617,0
27,289,31,97,1,0,90,2,1,0,0,0,0,0,0,511,0,2,513,0
28,178,19,130,3,0,122,3,0,0,0,0,0,0,0,455,0,0,455,0
29,266,40,191,0,4,165,2,0,0,0,0,0,1,2,671,0,3,674,0
30,278,33,188,1,0,231,0,0,0,0,0,5,1,0,737,0,0,737,0
31,144,19,146,0,0,136,1,0,0,0,0,1,0,0,447,0,1,448,0
32,105,10,258,0,0,79,1,0,0,0,0,1,0,0,454,0,1,455,0
33,242,13,210,3,0,170,1,1,0,0,0,0,0,0,640,0,2,642,0
34,161,17,113,1,0,143,1,0,0,1,0,2,0,0,439,0,3,442,0
35,256,24,246,0,1,159,2,0,0,0,0,0,1,1,690,0,2,692,0
36,336,14,187,1,1,169,0,0,0,1,0,1,1,0,711,0,7,718,0
37,221,28,161,0,1,127,2,0,1,0,0,0,1,0,542,0,1,543,0
38,413,21,159,0,1,198,5,0,0,0,1,0,1,1,800,0,3,803,0
39,165,15,118,0,0,111,0,0,1,0,0,0,0,0,410,0,3,413,0
40,302,23,130,0,1,150,5,0,2,0,1,0,0,0,614,0,2,616,0
41,277,27,125,1,1,134,4,0,0,0,0,1,0,2,572,0,2,574,0
42,307,35,200,0,0,121,4,0,0,0,0,0,2,0,669,0,3,672,0
43,334,33,204,2,0,197,6,0,0,0,0,0,0,1,777,0,2,779,0
44,225,29,214,0,1,186,1,0,2,1,1,0,1,1,662,0,5,667,0
45,1163,2,67,0,0,51,1,0,0,0,0,0,0,0,284,0,0,284,0
46,285,24,120,1,0,198,0,1,0,2,2,0,0,0,633,0,1,634,0
47,275,16,119,2,2,147,2,0,0,1,0,0,1,0,565,0,1,566,0
48,285,13,185,0,4,157,1,0,1,0,0,1,1,2,650,0,4,654,0
49,359,36,173,1,0,217,2,0,0,0,1,0,0,0,789,0,0,789,0
50,298,9,116,0,1,148,0,0,0,0,2,0,2,0,576,0,1,577,0
51,447,43,244,0,0,202,5,0,0,1,0,0,0,2,944,0,2,946,0
52,333,27,176,1,1,167,1,0,0,1,0,0,2,0,709,0,4,713,0
53,135,29,102,2,1,102,0,0,1,0,0,1,1,0,374,0,3,377,0
54,351,42,147,1,2,167,0,0,0,0,0,1,1,2,714,0,4,718,0
55,338,39,123,0,1,182,2,0,0,1,0,0,0,0,686,0,1,687,0
56,336,36,206,2,0,149,1,0,0,0,0,1,1,0,732,0,5,737,0
57,333,30,123,1,0,154,3,0,0,0,0,0,1,12,657,0,3,660,0
58,316,13,110,2,1,95,1,0,0,0,0,0,0,4,542,0,2,544,0
59,433,35,164,0,0,162,2,0,0,0,1,0,2,2,801,0,5,806,0
60,396,36,186,1,1,162,1,0,0,0,0,0,0,0,783,0,3,786,0
61,316,32,154,1,1,194,0,0,0,0,0,1,2,0,701,0,2,703,0
62,283,27,119,2,1,190,0,0,2,1,0,0,0,0,625,0,8,633,0
63,337,51,188,0,1,204,0,0,0,0,0,1,0,4,786,0,5,791,0
64,311,31,211,0,0,216,0,0,0,0,2,1,1,0,773,0,1,774,0
65,377,58,216,2,1,311,2,0,0,0,1,0,1,3,972,0,4,976,0
66,347,33,153,0,3,235,3,0,1,1,4,0,0,1,781,0,3,784,0
67,421,24,157,1,1,228,6,0,0,2,0,0,0,2,842,0,7,849,0
68,344,36,128,0,1,104,0,0,0,1,0,1,1,0,616,0,5,621,0
69,383,39,154,2,3,256,0,1,0,1,1,0,2,2,844,0,2,846,0
70,264,10,94,0,0,77,1,0,1,0,0,0,1,0,448,0,4,452,0
71,221,34,147,1,0,180,1,0,2,0,2,0,2,0,590,0,3,593,0
72,349,37,151,0,3,188,0,0,0,0,1,0,1,2,732,0,5,737,0
73,245,13,68,0,0,182,1,0,0,0,1,0,0,2,512,0,1,513,0
74,277,25,146,0,1,110,0,0,1,0,1,2,0,0,563,0,5,568,0
75,276,28,112,1,0,135,0,0,0,0,0,0,0,2,554,0,2,556,0
76,310,12,142,1,0,73,0,0,0,0,0,0,0,1,539,0,2,541,0
77,295,43,127,0,1,214,0,0,0,1,0,0,1,1,683,0,5,688,0
78,397,23,193,1,1,172,0,0,0,1,0,1,0,1,790,0,1,791,0
79,306,19,121,0,1,99,0,0,0,0,0,0,0,2,548,0,1,549,0
80,371,38,173,1,2,193,9,0,0,0,1,0,0,1,789,0,5,794,0
81,363,29,159,2,0,207,0,0,0,0,0,0,2,3,765,0,0,765,0
82,484,47,162,0,0,188,0,0,2,0,0,0,0,1,884,0,5,889,0
83,223,19,128,1,2,103,1,0,0,1,0,0,6,5,489,0,11,500,0
84,232,8,109,2,0,74,3,0,0,0,0,0,1,1,430,0,3,433,0
85,195,17,49,0,1,44,0,0,0,0,0,1,0,0,307,0,1,308,0
86,430,40,187,1,0,180,0,0,1,0,3,3,1,0,846,0,4,850,0
87,392,29,160,0,0,139,0,0,0,0,0,0,0,0,720,0,1,721,0
88,219,12,75,1,0,94,1,0,1,0,0,1,1,1,406,0,4,410,0
89,440,45,155,0,1,211,3,0,1,1,0,0,1,0,858,0,7,865,0
90,2385,24,272,1,1,206,4,0,0,1,0,0,0,0,894,0,4,898,0
91,410,43,238,1,1,174,10,0,0,0,0,1,0,1,879,0,1,880,0
92,256,25,143,0,0,68,0,0,0,1,0,0,1,2,496,0,5,501,0
93,271,17,87,0,0,89,0,0,0,0,0,0,0,0,464,0,2,466,0
94,274,2,172,0,0,62,1,0,0,0,0,0,1,1,513,0,1,514,0
95,358,51,136,2,0,192,0,0,0,1,0,0,1,0,741,0,2,743,0
96,262,27,160,0,1,141,18,0,1,1,0,0,1,0,612,0,0,612,0
97,208,22,100,0,0,78,0,0,0,0,0,0,1,0,409,0,4,413,0
98,331,40,129,1,0,207,1,0,0,1,0,0,1,1,712,0,2,714,0
99,224,24,94,0,1,162,0,0,0,0,0,0,0,0,505,0,2,507,0
100,406,20,207,0,0,205,1,0,0,0,0,0,1,0,840,0,2,842,0
101,385,31,182,1,1,222,0,0,0,0,0,1,0,1,824,0,4,828,0
102,357,31,180,0,1,201,0,0,1,0,1,0,0,0,772,0,3,775,0
103,473,35,199,0,1,223,0,0,0,0,0,1,0,1,933,0,5,938,0
104,314,10,79,1,2,119,0,0,0,0,1,0,0,1,527,0,1,528,0
105,391,22,199,1,2,103,0,0,0,0,0,0,5,0,723,0,4,727,0
106,296,21,108,1,0,97,0,0,1,0,0,0,0,0,524,0,1,525,0
107,269,11,185,0,0,113,2,0,0,0,1,0,1,0,582,0,4,586,0
108,195,10,106,1,1,90,0,1,0,0,0,0,0,0,404,0,4,408,0
109,389,21,139,0,0,137,0,0,0,0,1,1,2,0,690,0,1,691,0
110,465,30,208,2,1,156,0,0,0,0,1,2,4,1,870,0,2,872,0
111,273,11,174,1,1,110,13,0,0,0,0,1,1,0,585,0,3,588,0
112,109,17,239,0,0,45,0,0,0,0,0,1,1,0,412,0,0,412,0
113,372,31,182,0,0,158,1,1,0,0,0,2,2,0,749,0,1,750,0
114,350,32,187,0,1,135,0,0,0,0,0,0,0,1,706,0,3,709,0
115,327,17,125,0,1,101,0,0,0,0,0,0,0,3,574,0,2,576,0
116,331,18,181,0,1,115,1,0,0,0,0,2,1,0,650,0,4,654,0
117,344,21,178,0,0,86,0,0,0,0,0,1,1,0,631,0,3,634,0
118,423,10,172,0,0,110,3,0,0,0,0,0,0,0,718,0,1,719,0
119,304,23,272,1,0,153,3,0,1,1,0,1,3,1,763,0,4,767,0
120,259,12,156,1,0,132,0,0,0,0,0,0,0,1,561,0,3,564,0
121,275,38,143,1,0,117,2,0,0,0,0,0,0,0,576,0,0,576,0
122,540,29,152,2,1,193,1,0,0,0,0,1,1,1,921,0,7,928,0
123,359,29,126,0,0,113,0,0,0,0,0,0,0,0,627,0,4,631,0
124,261,13,146,0,1,116,1,0,0,0,0,0,0,0,538,0,6,544,0
125,403,41,284,2,4,228,0,0,0,0,0,0,3,1,966,0,6,972,0
126,217,25,141,0,1,100,5,0,0,0,0,0,0,0,489,0,2,491,0
127,301,21,119,0,0,71,0,0,0,0,0,0,0,2,514,0,2,516,0
128,602,31,207,1,0,179,1,0,0,1,1,1,0,0,1024,0,1,1025,0
129,296,20,135,0,0,129,0,0,0,0,0,2,0,0,582,0,0,582,0
130,242,11,111,2,0,120,0,0,0,0,0,1,0,0,487,0,3,490,0
131,261,28,175,0,0,148,1,1,0,0,0,0,1,0,615,0,1,616,0
132,117,11,263,0,0,115,0,0,1,0,0,0,0,0,507,0,6,513,0
133,338,23,98,0,0,72,0,0,1,1,0,1,0,0,534,0,0,534,0
134,243,18,119,0,0,108,0,0,0,0,0,2,0,0,490,0,0,490,0
135,3287,25,153,1,0,158,1,1,1,2,0,0,0,0,629,0,4,633,0
136,371,20,168,1,0,151,2,1,0,1,1,2,0,2,720,0,1,721,0
137,379,52,189,0,2,165,1,0,0,0,0,0,1,1,790,0,3,793,0
138,322,17,85,0,0,86,1,0,0,0,0,0,0,1,512,0,7,519,0
139,315,21,206,1,0,162,0,0,0,0,0,0,5,0,710,0,8,718,0
140,334,17,191,2,0,192,0,2,0,1,0,0,4,0,743,0,9,752,0
141,55,17,466,0,1,67,0,0,0,0,0,0,0,0,606,0,2,608,0
142,246,11,184,0,0,143,1,0,0,0,0,1,0,0,586,0,4,590,0
143,127,16,447,0,0,84,0,0,0,0,0,0,0,0,674,0,0,674,0
144,381,39,209,0,0,203,0,1,0,1,0,0,2,1,837,0,5,842,0
145,431,23,225,4,2,241,1,0,0,0,0,0,1,0,928,0,7,935,0
146,276,31,206,1,1,186,0,0,2,1,0,0,2,1,707,0,2,709,0
147,336,20,98,1,0,89,2,0,0,0,0,1,1,3,551,0,1,552,0
148,279,18,140,0,0,96,2,0,0,0,0,0,1,0,536,0,2,538,0
149,337,28,194,1,2,127,40,0,0,0,0,1,1,0,731,0,1,732,0
150,390,21,250,0,1,136,5,1,0,0,0,0,1,1,806,0,6,812,0
151,332,37,198,1,0,129,3,0,0,0,1,1,1,0,703,0,2,705,0
152,262,24,109,0,0,113,1,0,0,0,0,0,0,1,510,0,3,513,0
153,418,24,136,0,1,117,1,0,0,0,0,0,0,1,698,0,1,699,0
154,385,20,205,0,19,191,0,0,1,0,1,0,0,2,824,0,1,825,0
155,386,31,143,0,0,129,0,0,0,0,0,0,1,0,690,0,2,692,0
156,395,32,181,1,1,221,0,1,1,1,0,0,0,0,834,0,3,837,0
157,375,22,151,2,0,132,5,0,0,0,0,2,0,0,689,0,3,692,0
158,453,27,188,0,0,194,2,0,0,0,0,0,0,1,865,0,3,868,0
159,350,28,218,0,0,177,1,0,0,0,0,1,1,1,777,0,2,779,0
160,417,47,180,5,0,177,2,0,0,0,1,0,0,1,830,0,3,833,0
161,365,29,210,3,1,227,0,0,0,1,0,0,1,1,838,0,5,843,0
162,259,21,116,0,0,160,5,0,1,0,1,0,0,0,563,0,1,564,0
163,124,32,149,1,1,129,0,0,0,0,0,2,1,0,439,0,0,439,0
164,303,30,211,2,0,147,2,0,0,0,1,1,3,2,702,0,3,705,0
165,77,10,369,2,0,68,0,0,0,0,0,0,0,0,526,0,1,527,0
166,370,19,207,1,0,170,1,0,1,1,0,0,0,0,770,0,2,772,0
167,202,8,136,0,0,107,0,0,0,0,0,1,0,1,455,0,2,457,0
168,277,31,119,4,0,140,8,0,0,1,1,1,0,0,582,0,2,584,0
169,195,18,180,4,0,129,0,0,0,0,0,0,0,0,526,0,0,526,0
170,104,7,120,1,0,63,0,0,0,1,0,0,0,0,296,0,0,296,0
171,257,23,193,0,1,132,0,0,1,1,0,0,0,1,609,0,2,611,0
172,246,17,180,2,0,214,0,0,1,0,1,0,1,0,662,0,4,666,0
173,204,12,134,0,0,88,0,0,0,0,0,0,1,0,439,0,1,440,0
174,507,30,193,1,1,226,4,0,0,1,1,0,1,1,966,0,0,966,0
175,358,31,270,0,0,218,16,0,1,1,0,1,0,0,896,0,2,898,0
176,405,27,218,2,0,205,0,0,0,0,0,0,1,0,858,0,5,863,0
177,305,29,174,5,2,219,4,0,0,0,2,0,0,1,741,0,8,749,0
178,301,33,228,0,0,180,0,1,0,0,1,1,1,0,746,0,3,749,0
179,312,30,91,1,0,92,6,0,0,0,0,0,0,0,532,0,1,533,0
180,4178,30,157,2,0,116,0,0,0,0,0,0,1,0,484,0,4,488,0
181,195,16,139,2,0,183,2,0,0,2,1,0,0,1,541,0,3,544,0
182,217,17,114,0,0,139,2,0,0,1,1,0,0,2,493,0,1,494,0
183,309,41,188,0,0,225,0,0,0,0,0,1,1,1,766,0,0,766,0
184,306,28,229,0,0,286,0,0,0,0,0,0,2,0,851,0,0,851,0
185,154,10,139,0,1,150,6,0,1,0,0,0,0,0,461,0,2,463,0
186,70,7,411,1,1,93,0,0,0,0,0,0,2,0,585,0,2,587,0
187,211,27,202,3,0,187,0,0,0,1,1,1,0,0,633,0,4,637,0
188,154,11,318,1,1,139,0,0,0,0,0,1,0,0,625,0,1,626,0
189,209,26,133,2,3,216,0,0,0,1,1,0,1,0,592,0,1,593,0
190,354,21,209,0,0,202,0,0,1,0,0,0,0,1,788,0,1,789,0
191,271,37,206,0,0,245,3,0,0,0,2,0,1,0,765,0,2,767,0
192,260,29,197,2,0,270,0,1,0,0,0,0,1,2,762,0,0,762,0
193,282,32,172,2,5,204,0,1,0,0,0,0,0,1,699,0,1,700,0
194,288,42,219,4,1,296,3,0,1,0,0,0,0,2,856,0,4,860,0
195,344,16,134,1,0,138,1,0,0,0,0,0,1,2,637,0,2,639,0
196,257,8,94,3,0,104,1,0,0,1,0,0,0,0,468,0,0,468,0
197,347,13,111,0,1,117,0,0,1,0,0,0,0,0,590,0,6,596,0
198,418,25,263,4,2,149,0,0,0,0,0,0,0,2,863,0,3,866,0
199,382,30,257,1,0,279,2,0,1,1,1,0,2,2,958,0,2,960,0
200,272,37,214,0,0,201,0,0,0,0,1,0,0,0,725,0,3,728,0
201,411,24,250,2,0,289,7,0,1,0,0,0,1,0,985,0,2,987,0
202,209,27,155,0,0,168,0,1,0,2,0,0,2,1,565,0,2,567,0
203,204,13,129,0,1,88,3,0,0,0,0,0,0,0,438,0,0,438,0
204,359,20,209,0,1,193,0,0,0,0,0,1,1,0,784,0,3,787,0
205,476,31,197,0,1,197,1,0,0,0,1,2,1,0,907,0,4,911,0
206,450,21,156,2,0,156,10,1,0,0,0,0,0,1,797,0,4,801,0
207,315,19,142,2,2,181,3,0,0,0,0,0,1,3,668,0,1,669,0
208,367,30,198,3,1,170,0,0,1,1,0,0,0,0,771,0,1,772,0
209,256,33,192,1,1,264,10,0,0,1,1,1,2,1,763,0,2,765,0
210,143,16,289,0,1,138,0,0,0,0,0,0,0,0,587,0,1,588,0
211,417,28,191,1,0,247,3,1,0,0,0,1,0,0,889,0,3,892,0
212,337,15,217,1,0,178,0,0,1,0,0,0,0,2,751,0,2,753,0
213,145,18,109,2,0,112,11,0,0,0,0,0,0,0,397,0,0,397,0
214,170,27,120,1,0,82,26,0,0,1,0,0,0,0,427,0,0,427,0
215,316,24,163,2,2,194,1,0,0,1,0,1,3,0,707,0,7,714,0
216,204,23,258,0,0,188,3,1,0,1,0,0,3,1,682,0,2,684,0
217,213,42,94,0,0,79,2,0,0,0,0,0,0,0,430,0,1,431,0
218,358,25,264,1,2,217,1,0,0,0,0,1,0,0,869,0,5,874,0
219,202,9,115,0,0,103,8,0,2,1,0,0,0,1,441,0,1,442,0
220,260,27,150,1,0,135,3,0,1,0,0,0,1,2,580,0,3,583,0
221,332,16,151,1,0,105,0,0,0,0,3,1,0,0,609,0,2,611,0
222,305,34,295,1,0,182,14,0,0,0,0,1,1,1,834,0,4,838,0
223,322,15,119,0,0,128,0,1,0,0,0,1,2,0,588,0,3,591,0
224,264,22,164,0,0,140,3,0,0,0,0,0,2,2,597,0,1,598,0
225,5338,43,273,0,1,210,1,1,0,0,0,0,4,2,873,0,5,878,0
226,172,17,98,0,1,116,1,0,0,1,0,1,0,1,408,0,0,408,0
227,224,21,77,0,0,144,1,0,1,0,0,0,0,0,468,0,3,471,0
228,346,30,190,2,0,209,3,0,1,1,0,0,2,0,784,0,3,787,0
229,188,12,122,2,0,181,4,0,0,0,1,2,2,0,514,0,0,514,0
230,161,13,80,0,0,90,1,1,0,1,0,0,0,0,347,0,0,347,0
231,381,52,180,2,1,255,14,0,1,1,1,2,0,1,891,0,5,896,0
232,267,36,151,0,1,171,7,0,0,0,0,0,0,2,635,0,1,636,0
233,186,14,193,0,0,162,3,1,1,1,1,0,3,0,565,0,2,567,0
234,392,24,206,2,0,257,5,0,0,0,2,0,2,0,890,0,1,891,0
235,372,20,261,2,1,160,5,0,0,0,0,0,0,0,821,0,0,821,0
236,148,25,137,2,0,95,4,0,0,1,0,0,0,1,413,0,1,414,0
237,274,41,283,1,2,271,0,0,0,0,0,1,1,0,874,0,4,878,0
238,366,22,183,0,1,182,0,1,0,1,1,1,1,1,760,0,3,763,0
239,68,8,132,0,2,63,0,0,1,0,0,0,1,1,276,0,0,276,0
240,409,24,283,0,1,197,6,0,0,0,0,1,1,2,924,0,4,928,0
241,287,20,164,0,1,281,0,1,0,0,1,1,2,1,759,0,7,766,0
242,395,32,178,1,0,238,1,0,0,0,1,0,0,1,847,0,4,851,0
243,378,38,131,0,1,202,6,0,0,0,1,0,0,0,757,0,2,759,0
244,291,27,182,0,0,258,3,0,1,0,0,1,0,1,764,0,2,766,0
245,361,26,195,0,0,292,4,0,0,0,0,0,0,0,878,0,6,884,0
246,388,24,171,1,1,248,45,0,1,0,0,1,2,0,882,0,4,886,0
247,279,22,228,0,1,358,2,0,0,1,1,0,0,1,893,0,1,894,0
248,213,25,206,0,0,139,0,0,0,0,0,1,0,0,584,0,2,586,0
249,247,25,140,1,0,135,1,0,0,1,0,0,1,1,552,0,2,554,0
250,251,25,210,1,0,197,0,0,0,0,0,0,1,0,685,0,1,686,0
251,171,17,221,0,2,103,0,0,0,0,0,0,0,1,515,0,1,516,0
252,103,8,593,2,0,112,0,0,1,1,1,0,0,0,821,0,3,824,0
253,466,16,195,0,1,187,4,0,0,0,1,0,0,0,870,0,2,872,0
254,223,11,79,0,0,73,0,1,0,1,0,0,0,0,388,0,1,389,0
255,175,16,118,0,0,109,0,0,0,0,0,0,0,1,419,0,2,421,0
256,292,12,183,2,0,122,3,0,1,0,0,1,0,2,618,0,4,622,0
257,176,13,142,0,1,113,0,0,0,1,1,0,2,0,449,0,2,451,0
258,173,11,140,0,1,102,0,0,1,0,0,0,1,2,431,0,3,434,0
259,486,32,161,1,1,166,0,0,0,0,0,1,0,1,849,0,1,850,0
260,411,19,132,2,0,148,24,0,1,0,0,0,1,0,738,0,3,741,0
261,406,35,223,1,0,191,5,1,0,0,0,0,0,0,862,0,4,866,0
262,192,19,155,1,0,122,1,0,0,0,1,0,1,0,492,0,2,494,0
263,193,20,221,1,0,131,1,0,0,1,0,1,1,1,571,0,0,571,0
264,68,7,173,2,0,66,0,0,0,0,0,0,1,0,317,0,0,317,0
265,100,6,233,1,0,95,0,0,0,0,0,0,1,0,436,0,1,437,0
266,208,21,187,0,0,175,7,0,0,1,0,0,0,0,599,0,2,601,0
267,219,28,199,1,0,201,15,1,0,0,0,0,0,0,664,0,3,667,0
268,257,16,254,0,1,214,2,0,0,2,0,0,0,2,748,0,4,752,0
269,298,19,203,0,1,182,2,0,1,0,1,0,1,0,708,0,6,714,0
270,6267,12,91,2,0,126,0,0,0,0,0,0,1,0,499,0,1,500,0
271,195,11,218,2,0,113,0,0,0,0,1,0,3,0,543,0,2,545,0
272,435,19,233,1,1,127,0,0,0,0,0,1,4,1,822,0,2,824,0
273,252,28,78,0,0,117,3,0,0,1,0,1,0,0,480,0,0,480,0
274,395,20,186,1,2,238,58,0,0,0,0,2,0,1,903,0,7,910,0
275,357,31,195,3,3,280,11,0,3,1,0,1,1,1,887,0,2,889,0
276,320,10,197,0,1,177,0,0,0,1,0,0,0,1,707,0,3,710,0
277,246,20,157,0,0,149,7,0,0,0,0,1,0,2,582,0,2,584,0
278,216,12,149,0,1,103,2,1,0,0,1,1,0,1,487,0,3,490,0
279,268,12,160,0,0,107,1,0,0,1,0,3,2,1,555,0,5,560,0
280,336,11,229,0,0,136,3,0,0,0,0,0,0,2,717,0,0,717,0
281,341,30,175,1,0,162,1,0,0,1,0,0,1,0,712,0,2,714,0
282,519,44,212,2,1,160,1,1,1,0,1,0,4,0,946,0,5,951,0
283,399,33,176,3,0,167,0,0,0,0,1,1,0,0,780,0,4,784,0
284,431,26,170,1,0,100,1,1,0,0,0,0,0,0,730,0,2,732,0
285,241,6,102,0,0,88,1,0,0,0,0,0,1,1,440,0,2,442,0
286,396,28,230,3,0,183,1,0,1,0,0,1,1,0,844,0,3,847,0
287,296,26,116,0,1,190,2,0,0,1,0,0,0,1,633,0,1,634,0
288,290,28,158,3,1,164,0,0,0,2,0,0,0,1,647,0,2,649,0
289,207,24,167,0,0,107,0,1,0,0,0,0,1,0,507,0,1,508,0
290,220,30,195,2,1,205,2,1,0,0,0,1,1,0,658,0,2,660,0
291,400,9,93,0,1,120,4,0,0,0,0,0,1,0,628,0,1,629,0
292,256,17,139,2,1,164,3,0,0,0,0,0,0,0,582,0,3,585,0
293,277,20,128,1,1,126,3,0,0,0,1,0,0,1,558,0,2,560,0
294,238,35,258,1,0,183,1,1,0,0,0,0,1,0,718,0,1,719,0
295,258,28,129,0,0,214,0,0,1,0,0,0,0,1,631,0,4,635,0
296,342,36,151,0,2,192,2,0,0,1,0,0,3,1,730,0,2,732,0
297,258,22,127,1,0,151,2,0,0,0,0,0,0,0,561,0,3,564,0
298,299,29,126,1,1,169,0,0,0,0,1,0,0,1,627,0,1,628,0
299,347,23,110,0,1,206,2,0,0,0,0,0,0,0,689,0,4,693,0
300,373,33,202,1,1,157,2,0,0,0,0,1,0,0,770,0,6,776,0
301,305,35,214,0,0,200,3,0,0,2,0,0,2,0,761,0,7,768,0
302,396,36,170,2,4,233,0,0,0,0,1,0,1,1,844,0,4,848,0
303,381,29,228,1,0,156,2,0,0,1,0,0,1,0,799,0,7,806,0
304,221,8,339,0,1,135,1,0,0,0,0,0,1,1,707,0,7,714,0
305,471,25,232,0,0,176,0,0,0,1,0,1,0,0,906,0,7,913,0
306,157,14,90,0,0,84,2,0,0,0,0,0,0,0,347,0,2,349,0
307,236,22,183,1,1,132,5,1,1,0,0,0,0,2,584,0,11,595,0
308,361,20,140,0,2,256,0,0,0,0,0,0,2,0,781,0,3,784,0
309,298,24,165,0,0,209,3,0,1,0,0,1,0,0,701,0,4,705,0
310,185,9,239,0,0,77,0,0,0,0,0,0,2,0,512,0,1,513,0
311,313,20,164,0,0,113,0,0,0,0,1,1,0,0,612,0,2,614,0
312,201,33,177,5,1,102,1,1,0,0,0,1,1,0,523,0,2,525,0
313,108,5,247,1,0,55,0,0,0,0,0,1,0,0,417,0,1,418,0
314,450,33,256,3,2,195,0,0,0,0,0,1,0,1,941,0,7,948,0
315,7291,19,147,1,0,128,1,0,0,0,1,2,1,2,593,0,3,596,0
316,393,19,217,0,1,192,3,0,0,0,0,1,1,1,828,0,0,828,0
317,358,19,230,0,1,169,17,0,0,1,0,1,0,1,797,0,1,798,0
318,350,38,243,3,1,210,17,1,1,0,0,0,0,2,866,0,6,872,0
319,310,15,157,0,0,111,5,0,0,0,0,0,1,1,600,0,4,604,0
320,287,11,145,3,0,99,8,0,1,0,1,0,1,0,556,0,4,560,0
321,273,11,131,0,1,97,6,0,0,1,0,3,2,0,525,0,1,526,0
322,201,11,61,0,1,80,0,0,0,0,1,0,0,0,355,0,0,355,0
323,282,28,177,1,0,167,2,0,0,0,0,1,1,2,661,0,4,665,0
324,241,20,108,0,0,143,0,1,0,2,0,0,0,1,516,0,3,519,0
325,379,50,243,0,0,182,2,0,0,0,1,1,1,1,860,0,2,862,0
326,292,17,172,0,1,153,1,0,0,1,1,1,2,1,642,0,4,646,0
327,303,36,113,1,2,178,0,0,0,1,0,1,0,1,636,0,1,637,0
328,293,28,119,2,0,147,1,0,0,1,0,0,0,0,591,0,1,592,0
329,284,18,107,1,2,103,0,0,1,0,0,1,1,0,518,0,0,518,0
330,240,24,168,1,1,113,0,1,0,0,0,0,1,2,551,0,1,552,0
331,335,24,151,2,0,139,1,0,1,0,0,0,2,0,655,0,2,657,0
332,412,43,194,1,0,187,2,0,0,0,2,0,0,0,841,0,9,850,0
333,282,28,175,1,0,175,1,0,1,0,1,0,1,0,665,0,0,665,0
334,397,15,166,1,0,143,8,0,1,0,0,0,1,0,732,0,4,736,0
335,458,22,273,1,0,144,7,0,0,0,0,1,1,0,907,0,2,909,0
336,252,7,175,1,0,178,4,0,0,0,1,2,1,0,621,0,3,624,0
337,392,31,202,3,1,240,9,0,0,1,0,2,1,0,882,0,0,882,0
338,298,35,181,3,2,191,1,0,0,2,0,0,0,0,713,0,7,720,0
339,396,32,170,0,1,243,3,0,0,0,0,2,3,1,851,0,2,853,0
340,529,47,228,0,0,238,0,0,0,0,1,0,1,1,1045,0,4,1049,0
341,348,25,239,3,1,170,0,0,0,1,1,0,4,1,793,0,4,797,0
342,377,25,244,0,0,228,3,0,0,2,0,1,1,1,882,0,8,890,0
343,211,13,120,0,1,97,0,0,0,0,0,0,0,0,442,0,1,443,0
344,216,6,106,1,0,67,1,0,0,0,0,0,1,0,398,0,4,402,0
