Polling Station No,THACHAI GANESARAJA,SATHYA. B.,SUBRAMANIAN.S,ARUMUGARAJ. S.,ESWARA VADIVU. S.,KANNAN. G.,SELVAKUMAR SINGH,CHENDUR MAHARAJAN,MURUGHAN.R.S.,MURUGAN. P.,DR.SHYAM KRISHNASAMY,ATHISAYA PNDIYAN. V.,ESAKKIRAJA. V.,SUBRAMANIAN. E.,THALABATHI MURUGAN. M.,MUGESH SUBRAMANIAN,MURUGAN.S.,MURUGALAKSHMANAN,VEERABAGHU. M.,VELAYUTHAM. P.,Total Valid Votes,Rejected Votes,NOTA,Total,Tendered Votes
1,76,38,153,0,0,2,0,1,78,0,5,0,0,0,2,1,1,0,0,0,357,0,0,357,0
2,173,79,220,3,1,2,1,0,168,3,0,0,1,4,3,2,2,1,1,0,664,0,1,665,0
3,69,55,102,0,1,3,0,1,223,0,0,1,0,1,1,0,0,0,0,1,458,0,1,459,0
4,66,34,174,0,0,4,0,3,99,1,3,0,1,0,1,1,2,0,0,0,389,0,0,389,0
5,11,28,214,3,0,0,0,1,126,0,9,1,0,0,0,0,0,1,0,0,394,0,0,394,0
6,12,44,310,0,0,1,0,2,176,0,9,0,1,2,1,0,0,0,0,0,558,0,0,558,0
7,104,41,228,0,0,1,1,0,171,2,8,0,0,0,1,1,3,1,1,1,564,0,0,564,0
8,119,38,191,1,1,14,0,1,179,1,13,2,0,2,0,2,2,0,1,2,569,0,1,570,0
9,187,27,113,0,0,0,0,0,145,0,1,0,0,0,1,0,1,0,1,0,476,0,0,476,0
10,209,156,159,2,0,0,0,3,317,3,3,2,1,2,3,0,2,2,1,1,866,0,0,866,0
11,109,51,179,8,0,5,3,2,348,2,43,1,0,2,4,0,5,0,1,1,764,0,3,767,0
12,99,125,174,2,0,0,1,0,112,0,0,0,0,1,0,3,1,0,1,0,519,0,1,520,0
13,284,25,50,0,0,1,0,2,145,0,1,0,0,0,3,3,5,1,2,1,523,0,0,523,0
14,262,19,29,0,0,1,0,2,98,1,0,0,0,1,0,4,5,0,0,1,423,0,1,424,0
15,165,28,103,0,0,0,0,1,163,0,15,0,0,0,2,1,2,0,0,0,480,0,1,481,0
16,156,28,198,0,0,1,0,1,211,3,41,0,1,0,1,1,1,0,0,0,643,0,3,646,0
17,150,44,120,3,0,0,0,3,185,1,2,0,0,0,0,1,6,0,0,1,516,0,0,516,0
18,121,69,261,3,1,1,0,1,196,0,33,1,0,1,0,0,2,1,3,2,696,0,4,700,0
19,202,98,176,2,1,0,1,2,165,1,28,4,0,0,6,0,2,2,0,0,690,0,3,693,0
20,35,109,269,3,2,0,0,1,191,0,0,0,0,1,1,1,3,0,1,3,620,0,3,623,0
21,42,68,111,0,0,1,0,1,138,0,1,1,1,0,1,1,2,1,2,2,373,0,5,378,0
22,268,140,121,3,0,0,1,0,158,1,3,1,0,1,3,1,7,0,0,1,709,0,0,709,0
23,136,51,95,2,1,2,0,0,151,0,1,0,0,1,3,3,4,1,4,1,456,0,3,459,0
24,197,28,73,0,0,0,0,0,116,0,0,0,0,0,1,0,2,0,1,0,418,0,1,419,0
25,332,55,104,1,0,4,0,0,206,0,1,1,0,0,1,4,5,2,0,0,716,0,1,717,0
26,195,60,223,1,0,0,0,2,100,0,56,0,0,2,2,1,2,1,0,1,646,0,0,646,0
27,171,93,83,2,0,4,0,4,193,0,1,0,1,3,3,3,6,1,1,0,569,0,3,572,0
28,104,38,56,0,0,2,0,0,127,0,0,0,0,2,1,1,0,0,0,2,333,0,1,334,0
29,221,33,108,1,0,0,1,5,337,3,1,0,0,1,3,3,3,0,0,0,720,0,3,723,0
30,70,26,127,5,0,2,2,4,230,1,133,3,0,1,3,2,0,2,0,0,611,0,4,615,0
31,168,86,121,1,0,8,0,1,303,0,2,0,2,2,3,2,3,1,2,0,705,0,1,706,0
32,35,37,146,5,1,3,1,0,187,2,421,2,1,1,1,0,1,2,1,0,847,0,3,850,0
33,161,45,117,3,2,1,0,8,259,4,3,2,0,3,3,3,2,1,3,2,622,0,4,626,0
34,127,18,100,3,0,2,0,3,184,0,1,0,0,1,9,0,0,1,2,4,455,0,3,458,0
35,206,128,116,2,0,0,0,1,141,0,0,0,0,0,2,3,2,1,0,1,603,0,1,604,0
36,136,190,135,1,1,0,0,2,175,0,0,0,0,0,1,2,2,4,0,0,649,0,4,653,0
37,85,27,67,4,1,1,0,1,235,1,152,2,0,3,5,2,1,2,6,3,598,0,4,602,0
38,221,19,92,0,1,4,0,0,123,0,2,0,0,0,2,0,3,1,0,1,469,0,5,474,0
39,211,13,94,0,0,5,1,1,191,1,4,0,0,0,1,3,2,0,1,0,528,0,0,528,0
40,322,38,126,0,0,5,0,0,186,0,0,0,0,2,1,6,0,1,0,0,687,0,0,687,0
41,247,32,89,0,0,2,0,1,137,0,2,0,0,0,0,5,1,0,1,0,517,0,2,519,0
42,63,12,147,3,0,1,1,0,62,1,155,0,0,0,0,1,1,0,1,0,448,0,1,449,0
43,79,6,158,2,0,0,0,2,34,0,125,1,1,0,1,1,0,2,4,0,416,0,1,417,0
44,128,33,133,2,0,1,0,0,105,0,161,0,1,3,0,1,0,0,0,0,568,0,1,569,0
45,99,36,272,2,1,1,1,0,138,0,170,1,1,1,1,0,2,0,2,2,730,0,3,733,0
46,74,26,244,2,0,0,1,0,182,1,248,3,1,1,1,0,3,1,0,1,789,0,4,793,0
47,36,29,166,1,1,0,0,0,163,0,187,2,0,0,0,1,0,0,2,0,588,0,1,589,0
48,70,57,189,2,1,0,0,0,163,0,86,1,0,0,2,1,0,0,1,1,574,0,1,575,0
49,238,93,216,4,0,2,0,1,244,0,23,0,1,0,0,2,2,2,1,0,829,0,2,831,0
50,97,43,120,1,0,4,1,1,190,2,174,0,2,1,2,0,0,0,2,0,640,0,0,640,0
51,56,77,71,1,0,0,0,3,196,2,3,1,0,0,3,1,1,0,0,2,417,0,1,418,0
52,61,45,229,1,0,1,0,0,176,0,291,3,1,1,3,1,0,0,4,0,817,0,2,819,0
53,62,36,226,6,1,0,0,0,123,0,177,1,2,0,1,3,1,0,0,2,641,0,5,646,0
54,144,42,76,3,0,3,0,3,476,1,13,1,0,1,5,1,2,0,3,0,774,0,0,774,0
55,145,33,38,1,0,7,1,4,351,1,15,1,0,0,5,5,1,0,1,1,610,0,1,611,0
56,158,21,38,0,0,17,0,0,255,0,33,0,0,0,4,2,1,0,0,1,530,0,1,531,0
57,153,27,222,2,0,1,0,0,244,3,48,0,1,1,3,1,1,1,1,2,711,0,1,712,0
58,170,45,186,4,2,2,0,3,259,0,68,4,0,3,2,1,4,1,0,1,755,0,1,756,0
59,106,90,181,2,0,0,0,0,189,0,3,0,0,0,3,0,0,2,0,0,576,0,1,577,0
60,241,31,131,1,0,5,0,1,247,0,1,0,1,4,0,3,5,0,0,0,671,0,3,674,0
61,169,30,102,0,3,1,0,0,175,0,51,0,0,0,0,0,2,0,1,0,534,0,2,536,0
62,144,23,113,2,1,0,1,1,206,0,22,0,0,0,2,0,2,0,0,1,518,0,0,518,0
63,124,63,106,2,0,0,0,0,223,0,5,0,0,1,3,1,0,1,0,1,530,0,2,532,0
64,81,50,109,0,0,0,0,1,137,0,20,0,0,1,0,1,0,0,0,0,400,0,1,401,0
65,143,17,178,1,1,1,0,1,156,0,69,0,0,0,2,0,1,0,2,0,572,0,2,574,0
66,190,20,60,0,0,0,0,0,121,0,1,2,0,0,1,1,2,0,0,1,399,0,1,400,0
67,357,33,131,0,0,3,0,1,183,0,0,0,0,3,1,2,0,0,0,2,716,0,0,716,0
68,232,25,108,1,0,0,0,0,274,0,2,1,0,1,1,1,2,1,0,0,649,0,0,649,0
69,159,89,159,1,0,0,1,1,248,1,2,1,2,2,1,0,2,2,1,1,673,0,2,675,0
70,141,29,123,1,0,3,0,0,177,2,78,1,0,0,3,3,2,0,0,0,563,0,2,565,0
71,76,25,140,1,1,0,0,0,192,0,12,1,0,1,0,0,1,0,4,0,454,0,0,454,0
72,164,45,113,2,0,0,1,1,305,0,1,0,0,0,1,0,0,0,1,0,634,0,3,637,0
73,125,16,124,4,0,0,0,2,201,1,0,0,0,2,2,2,2,1,1,1,484,0,0,484,0
74,178,54,169,0,2,0,0,2,237,0,0,0,0,0,0,2,0,0,2,1,647,0,1,648,0
75,114,30,152,1,0,1,0,1,189,0,1,0,0,0,0,0,0,0,1,0,490,0,0,490,0
76,117,21,165,0,0,2,0,0,211,0,21,0,0,0,1,0,0,0,2,0,540,0,1,541,0
77,156,23,111,1,0,0,0,0,163,1,4,0,1,1,1,1,1,0,1,2,467,0,1,468,0
78,66,19,115,1,0,0,0,0,100,0,62,0,0,0,0,0,0,0,0,0,363,0,1,364,0
79,115,23,144,1,0,0,0,1,180,1,0,0,0,0,0,0,1,0,1,1,468,0,4,472,0
80,228,37,107,1,0,1,0,1,203,0,0,0,0,1,1,1,1,0,0,0,582,0,1,583,0
81,73,33,163,3,0,1,0,0,193,2,53,2,0,0,0,0,0,1,0,0,524,0,1,525,0
82,68,50,199,1,0,1,0,0,226,1,32,2,0,2,1,0,0,0,1,1,585,0,1,586,0
83,50,16,120,1,0,0,0,0,99,0,3,0,0,0,1,0,0,0,0,0,290,0,0,290,0
84,80,39,228,0,0,0,0,0,280,0,4,0,0,0,2,1,0,0,1,0,635,0,2,637,0
85,93,31,307,0,0,0,0,0,198,0,4,1,0,2,0,0,0,0,0,0,636,0,2,638,0
86,42,16,226,0,0,0,0,1,206,0,0,0,1,1,1,0,0,0,0,0,494,0,1,495,0
87,42,8,75,0,0,0,0,1,88,0,1,0,0,0,0,0,0,0,0,0,215,0,0,215,0
88,98,35,143,0,0,0,0,2,148,2,3,1,0,0,1,0,2,0,0,0,435,0,1,436,0
89,87,39,139,0,0,0,0,0,182,1,0,0,0,0,1,0,0,0,0,0,449,0,0,449,0
90,81,43,130,0,0,0,0,0,225,1,0,0,0,0,0,0,2,0,1,0,483,0,3,486,0
91,139,34,155,3,0,0,0,0,206,0,1,0,0,0,0,0,0,0,0,2,540,0,1,541,0
92,73,29,222,2,0,1,0,1,152,0,0,0,1,0,1,0,0,1,0,0,483,0,1,484,0
93,111,37,309,1,0,1,0,3,239,0,2,1,2,0,0,0,1,0,0,2,709,0,3,712,0
94,209,62,141,1,0,1,0,1,259,3,3,0,0,0,1,1,0,3,2,0,687,0,3,690,0
95,75,29,417,1,0,1,0,1,157,1,0,0,0,1,0,1,1,1,1,1,688,0,0,688,0
96,157,73,172,1,1,5,1,1,361,1,1,1,0,0,2,0,0,0,1,0,778,0,1,779,0
97,180,89,171,0,0,1,0,1,280,0,0,1,0,0,0,4,0,1,0,0,728,0,2,730,0
98,135,81,166,5,0,1,0,2,165,2,106,0,1,0,3,1,0,0,0,0,668,0,2,670,0
99,79,33,95,2,0,0,0,0,132,0,134,1,1,1,0,5,3,0,1,0,487,0,7,494,0
100,47,43,161,1,0,0,0,0,129,1,16,0,0,0,0,0,1,0,0,0,399,0,0,399,0
101,45,21,202,0,0,2,0,2,111,0,87,1,1,1,1,1,0,0,1,1,477,0,0,477,0
102,55,62,162,2,0,2,1,0,143,2,293,2,0,0,2,1,1,0,3,0,731,0,2,733,0
103,19,17,96,2,1,0,2,1,66,2,178,4,1,3,1,1,1,0,1,0,396,0,2,398,0
104,70,31,145,2,1,1,0,0,82,0,73,2,0,1,0,3,0,0,0,2,413,0,0,413,0
105,75,37,246,1,0,1,0,1,184,2,46,0,0,0,2,0,2,0,2,0,599,0,2,601,0
106,33,43,234,4,0,0,0,0,181,0,49,0,0,3,2,0,0,0,3,1,553,0,2,555,0
107,466,59,73,1,0,0,0,0,160,1,0,2,0,1,0,7,1,1,3,0,775,0,1,776,0
108,191,25,135,6,0,3,1,0,62,0,253,2,1,1,6,1,0,0,0,0,687,0,0,687,0
109,132,11,68,3,1,0,1,1,43,0,159,6,1,1,1,5,1,0,2,0,436,0,0,436,0
110,212,58,156,4,1,1,0,4,323,1,78,3,0,3,3,3,4,0,2,2,858,0,1,859,0
111,20,45,247,2,0,0,0,0,87,0,104,0,0,0,2,1,2,0,0,2,512,0,2,514,0
112,64,63,199,0,0,0,1,1,129,0,73,0,0,0,0,0,0,0,0,0,530,0,1,531,0
113,41,30,244,1,0,0,1,3,57,2,36,1,1,3,2,1,0,0,2,0,425,0,1,426,0
114,92,36,175,2,0,0,0,1,72,2,270,1,1,1,2,0,1,0,2,1,659,0,2,661,0
115,80,54,264,3,1,1,1,1,223,4,141,5,0,3,3,2,2,2,1,2,793,0,1,794,0
116,104,37,134,2,1,2,1,0,164,0,21,0,0,0,1,0,2,0,0,1,470,0,2,472,0
117,44,60,413,4,0,0,0,0,239,1,46,3,0,1,0,0,0,1,1,1,814,0,1,815,0
118,66,86,279,0,0,1,0,4,212,1,35,0,0,0,0,0,2,0,3,0,689,0,1,690,0
119,155,111,82,2,1,0,0,2,113,2,3,0,0,0,8,3,4,1,0,1,488,0,4,492,0
120,283,114,98,3,0,1,0,3,129,1,14,2,0,3,2,3,1,1,0,1,659,0,2,661,0
121,69,61,195,1,3,1,0,2,162,1,47,0,1,2,2,3,1,0,3,0,554,0,1,555,0
122,37,28,562,1,0,0,0,0,88,1,0,0,0,0,0,0,0,0,3,1,721,0,1,722,0
123,51,19,275,0,0,0,1,1,117,0,17,1,2,0,0,1,1,1,2,0,489,0,2,491,0
124,250,31,54,0,0,0,0,1,100,0,2,0,0,0,2,3,7,0,1,1,452,0,3,455,0
125,114,19,196,1,0,0,0,1,72,0,1,0,0,0,0,0,1,0,1,2,408,0,2,410,0
126,138,29,466,1,0,2,1,0,136,0,2,1,0,2,0,1,2,0,2,1,784,0,1,785,0
127,90,32,195,1,1,0,1,0,87,2,44,1,1,2,1,0,0,0,3,1,462,0,0,462,0
128,260,31,36,0,0,2,0,2,140,0,9,1,0,0,2,0,5,2,0,0,490,0,0,490,0
129,305,85,30,0,0,0,0,0,117,0,1,0,0,1,0,2,7,0,1,0,549,0,2,551,0
130,285,69,108,1,0,0,2,4,249,1,2,2,0,0,5,3,5,1,0,0,737,0,3,740,0
131,73,29,80,2,0,1,1,0,148,0,35,0,0,0,1,0,1,0,2,0,373,0,5,378,0
132,82,27,105,2,1,0,0,1,150,0,67,0,0,2,0,3,2,0,1,0,443,0,0,443,0
133,65,35,148,0,1,0,0,0,131,0,120,2,1,0,0,1,0,0,0,0,504,0,2,506,0
134,122,44,157,1,0,1,0,1,205,2,97,1,1,3,3,1,1,0,0,0,640,0,2,642,0
135,47,51,109,1,1,2,0,0,230,3,122,0,0,1,1,3,3,2,2,2,580,0,3,583,0
136,31,43,110,1,1,0,1,1,69,5,232,3,0,2,2,1,2,0,0,0,504,0,1,505,0
137,141,59,77,1,1,2,0,1,189,0,187,2,1,0,2,0,2,0,0,0,665,0,2,667,0
138,110,66,118,4,0,0,1,1,160,2,239,2,1,1,0,2,3,0,0,2,712,0,1,713,0
139,138,46,181,1,0,1,0,0,153,1,170,1,0,0,0,3,3,1,4,0,703,0,1,704,0
140,114,47,175,2,0,0,0,0,164,0,44,0,1,1,1,2,3,0,1,1,556,0,0,556,0
141,114,68,237,5,0,0,0,1,183,0,53,3,0,2,1,0,1,1,2,0,671,0,4,675,0
142,109,56,115,0,0,1,0,3,186,0,19,2,1,0,1,3,2,0,2,1,501,0,0,501,0
143,83,37,188,0,0,1,0,1,417,0,55,4,0,1,1,0,0,0,2,1,791,0,1,792,0
144,169,55,114,1,1,0,0,0,216,0,6,0,0,0,1,0,4,1,1,1,570,0,2,572,0
145,51,26,59,0,0,0,1,0,116,1,2,0,0,0,1,0,0,0,0,1,258,0,1,259,0
146,176,78,211,2,0,0,1,4,363,1,13,0,0,0,1,1,0,1,0,0,852,0,4,856,0
147,73,39,148,1,0,0,0,1,184,1,52,2,1,0,3,2,0,3,0,1,511,0,0,511,0
148,40,30,83,0,0,0,0,4,157,2,13,1,0,1,3,1,1,1,0,1,338,0,3,341,0
149,147,49,201,4,1,1,0,1,337,0,19,6,0,0,0,0,1,1,2,0,770,0,2,772,0
150,101,45,175,0,0,1,1,1,216,0,11,3,0,1,0,3,2,0,3,3,566,0,2,568,0
151,97,22,113,1,0,0,0,1,130,0,3,1,0,0,0,0,0,0,1,0,369,0,1,370,0
152,72,36,250,3,0,1,0,1,115,0,141,2,0,2,3,1,1,0,3,1,632,0,6,638,0
153,67,34,143,2,0,0,1,2,117,1,79,0,1,1,3,1,2,0,4,1,459,0,3,462,0
154,134,39,108,3,1,1,0,2,213,0,11,0,0,4,4,1,0,7,0,1,529,0,2,531,0
155,209,90,189,0,0,0,0,1,236,0,24,0,0,1,2,0,0,2,1,1,756,0,1,757,0
156,166,109,269,3,0,0,0,1,240,0,39,1,2,1,1,4,3,25,2,0,866,0,4,870,0
157,99,23,187,3,0,1,0,0,212,0,12,0,0,0,0,0,0,0,1,0,538,0,1,539,0
158,58,12,95,2,0,0,0,0,98,0,68,0,1,0,0,0,1,1,1,0,337,0,2,339,0
159,112,36,314,1,1,0,0,0,266,0,92,1,0,0,0,1,1,0,2,0,827,0,2,829,0
160,170,33,224,0,1,0,1,0,176,1,42,0,1,1,0,1,1,0,4,0,656,0,1,657,0
161,111,60,142,1,0,0,0,2,294,2,9,0,2,1,2,2,1,1,4,1,635,0,2,637,0
162,75,26,50,0,0,0,1,1,175,1,2,0,0,1,1,0,0,0,0,1,334,0,0,334,0
163,61,28,98,2,0,1,0,1,51,0,13,0,0,1,0,1,1,0,1,1,260,0,0,260,0
164,112,80,144,3,0,4,0,5,407,1,77,1,0,2,8,2,0,0,3,0,849,0,0,849,0
165,122,55,138,5,0,1,2,3,336,4,69,2,3,2,2,4,1,0,0,1,750,0,5,755,0
166,158,26,111,0,1,2,0,1,371,1,2,0,0,1,3,1,3,0,0,1,682,0,2,684,0
167,251,72,64,0,0,1,0,2,257,0,1,2,1,0,1,3,1,1,0,2,659,0,0,659,0
168,139,39,44,0,0,3,0,0,66,1,0,0,0,0,0,1,1,0,0,0,294,0,1,295,0
169,190,36,139,0,0,8,0,2,281,0,33,0,0,0,10,3,6,0,3,0,711,0,1,712,0
170,327,114,130,0,2,1,0,1,272,2,2,0,0,0,6,0,3,1,3,2,866,0,0,866,0
171,250,89,103,0,1,3,0,1,171,1,1,0,0,0,0,3,1,2,1,0,627,0,3,630,0
172,188,43,136,2,0,2,1,0,279,1,7,0,0,2,2,1,1,1,1,0,667,0,0,667,0
173,75,17,112,0,0,0,0,1,139,0,86,0,0,0,1,1,0,1,0,0,433,0,1,434,0
174,243,57,104,2,0,0,0,4,335,0,86,1,0,2,5,2,2,2,0,1,846,0,5,851,0
175,209,27,67,0,1,1,0,1,320,1,8,0,0,1,4,1,0,1,0,1,643,0,2,645,0
176,142,66,192,1,2,0,0,0,323,1,4,0,0,0,1,0,1,0,1,1,735,0,1,736,0
177,166,56,259,1,1,2,0,3,314,0,12,1,1,2,0,0,1,0,2,1,822,0,3,825,0
178,278,65,155,6,0,1,0,2,153,1,2,1,0,2,0,2,4,1,0,0,673,0,1,674,0
179,149,59,184,1,0,0,2,0,237,0,48,0,0,0,3,2,1,0,0,0,686,0,2,688,0
180,66,18,74,0,0,0,0,0,131,0,0,0,0,0,0,0,1,0,0,0,290,0,3,293,0
181,154,25,134,2,0,0,0,1,230,1,2,0,0,1,0,0,0,0,1,0,551,0,2,553,0
182,228,72,265,0,0,2,1,3,300,1,0,1,1,2,0,3,0,1,1,0,881,0,2,883,0
183,128,32,169,0,0,0,0,0,141,0,0,0,0,0,1,0,1,0,0,0,472,0,1,473,0
184,115,32,190,4,0,0,0,0,186,1,0,1,2,0,1,1,1,0,1,0,535,0,2,537,0
185,106,45,297,4,0,2,0,2,310,1,1,0,0,1,0,0,0,0,0,1,770,0,3,773,0
186,78,49,367,3,0,0,0,1,296,1,4,0,1,0,1,1,4,0,1,2,809,0,1,810,0
187,114,40,86,0,0,0,0,1,239,0,2,0,1,0,0,0,0,0,1,0,484,0,1,485,0
188,130,22,132,1,0,0,0,0,144,0,1,1,0,0,1,0,0,0,0,0,432,0,1,433,0
189,183,36,153,2,0,0,2,1,250,2,1,1,0,1,1,0,5,0,0,1,639,0,1,640,0
190,114,46,100,2,2,0,0,2,245,1,3,1,0,1,3,1,0,0,1,0,522,0,1,523,0
191,86,48,95,0,0,0,0,1,204,0,4,0,0,0,0,0,0,1,1,1,441,0,0,441,0
192,117,45,140,0,1,0,0,2,210,1,25,0,0,0,0,1,3,2,0,2,549,0,2,551,0
193,117,46,117,1,0,0,0,2,297,1,3,2,1,0,3,1,0,0,1,2,594,0,4,598,0
194,117,40,114,0,0,0,0,2,220,1,10,0,1,0,0,0,2,0,0,0,507,0,2,509,0
195,86,43,122,1,0,0,1,0,296,1,1,0,0,0,1,0,1,0,2,1,556,0,2,558,0
196,114,32,135,0,1,0,0,1,144,1,35,0,0,0,0,0,1,0,0,0,464,0,0,464,0
197,86,31,119,4,1,0,1,0,172,0,52,3,0,0,1,0,2,1,0,0,473,0,1,474,0
198,76,34,98,3,1,0,1,0,140,1,22,0,2,0,0,0,0,1,0,2,381,0,3,384,0
199,101,44,132,0,0,0,1,0,268,0,3,1,0,0,2,0,2,0,0,0,554,0,1,555,0
200,165,32,159,0,0,2,0,0,138,1,45,0,0,1,1,1,6,0,3,0,554,0,0,554,0
201,85,6,123,0,1,2,0,0,110,0,24,0,0,0,0,1,0,0,0,0,352,0,0,352,0
202,128,35,223,0,0,0,0,0,170,0,10,0,0,1,1,1,0,1,3,1,574,0,1,575,0
203,157,35,184,0,0,0,0,2,231,0,1,0,0,0,0,1,0,0,0,0,611,0,4,615,0
204,136,43,163,0,0,0,0,0,221,0,4,0,1,0,0,1,1,0,0,2,572,0,2,574,0
205,150,26,143,0,0,0,0,1,213,1,2,1,0,0,0,1,0,0,0,1,539,0,2,541,0
206,94,29,350,2,0,2,1,1,182,0,29,0,0,2,0,2,1,0,0,0,695,0,1,696,0
207,85,42,311,3,1,0,0,0,213,0,58,1,0,2,0,0,1,0,0,0,717,0,5,722,0
208,76,18,401,1,0,1,0,0,159,0,0,0,0,1,0,0,1,0,2,0,660,0,3,663,0
209,20,20,409,2,1,0,0,2,159,0,0,1,0,1,0,1,0,0,1,1,618,0,3,621,0
210,59,14,135,0,0,0,0,0,126,0,2,0,0,0,1,1,0,0,0,0,338,0,2,340,0
211,101,47,228,1,1,1,0,1,308,0,1,0,0,0,2,0,1,0,0,0,692,0,0,692,0
212,70,19,89,0,0,0,1,6,322,0,1,1,1,0,1,1,0,1,0,1,514,0,0,514,0
213,16,25,357,0,0,0,0,0,93,0,0,0,0,0,0,0,0,1,1,0,493,0,0,493,0
214,86,17,128,0,1,0,2,1,180,0,4,0,1,1,0,1,0,0,0,0,422,0,6,428,0
215,35,15,314,1,0,1,1,1,136,0,2,0,0,1,0,1,0,0,0,0,508,0,4,512,0
216,57,21,147,0,0,0,0,0,151,0,0,0,0,0,1,0,0,0,1,0,378,0,5,383,0
217,10,14,552,3,0,1,0,0,119,0,0,0,0,0,0,0,0,0,1,1,701,0,6,707,0
218,11,19,463,2,0,0,1,0,106,0,0,0,0,0,1,1,0,0,4,1,609,0,3,612,0
219,122,19,78,1,0,0,1,0,130,1,0,0,0,0,1,0,0,0,1,0,354,0,0,354,0
220,126,36,136,0,1,0,0,1,214,3,2,0,0,1,0,3,1,1,1,0,526,0,2,528,0
221,148,82,224,2,0,2,0,1,338,0,5,0,0,2,1,1,2,1,0,1,810,0,3,813,0
222,124,28,239,2,0,0,0,1,229,2,1,0,1,0,0,0,0,0,2,1,630,0,4,634,0
223,61,13,96,1,0,0,1,0,155,0,35,0,1,0,0,0,0,0,2,2,367,0,3,370,0
224,129,36,148,0,0,1,1,0,190,1,1,0,0,1,2,2,0,0,0,0,512,0,2,514,0
225,174,22,141,2,0,1,0,4,264,3,0,0,0,1,5,2,1,0,0,2,622,0,3,625,0
226,152,30,124,1,0,1,0,1,218,0,1,0,1,0,1,0,2,1,0,1,534,0,0,534,0
227,101,34,148,2,0,0,1,2,236,0,0,0,0,0,2,0,0,2,5,1,534,0,3,537,0
228,100,21,156,0,0,1,0,0,198,1,0,1,1,0,0,1,2,1,3,0,486,0,1,487,0
229,21,15,400,0,0,0,0,1,144,0,0,1,0,1,1,0,0,0,0,1,585,0,2,587,0
230,7,9,308,3,0,0,0,1,66,0,1,0,0,0,0,2,0,0,1,0,398,0,0,398,0
231,4,16,262,3,0,0,1,0,76,0,0,0,0,0,0,1,2,1,0,0,366,0,4,370,0
232,6,10,265,2,0,0,0,0,46,0,0,0,0,0,1,0,0,1,0,0,331,0,2,333,0
233,59,13,227,1,0,0,0,0,129,1,0,0,0,1,0,0,0,0,0,0,431,0,3,434,0
234,27,13,577,1,0,0,1,1,180,0,1,0,0,3,0,0,2,0,4,0,810,0,3,813,0
235,98,24,491,6,0,0,0,1,294,0,0,0,0,0,2,0,0,0,2,1,919,0,4,923,0
236,16,19,484,1,0,1,0,0,110,0,1,0,0,0,0,0,0,0,0,0,632,0,3,635,0
237,24,13,435,1,0,0,0,0,88,0,0,0,0,2,1,0,0,0,0,0,564,0,0,564,0
238,86,30,169,0,0,0,0,1,276,0,0,1,0,0,1,1,0,0,1,0,566,0,2,568,0
239,59,40,209,1,0,1,1,0,182,1,116,1,0,3,0,1,0,0,2,1,618,0,4,622,0
240,93,30,100,1,0,0,0,1,199,1,2,0,1,1,2,1,0,0,1,0,433,0,0,433,0
241,126,25,112,1,0,0,0,2,200,1,0,0,0,1,0,2,1,0,1,2,474,0,0,474,0
242,121,32,205,0,1,0,0,0,240,1,0,0,0,1,1,1,1,1,0,1,606,0,2,608,0
243,122,29,132,2,1,0,0,0,219,0,1,1,0,0,2,1,1,1,0,0,512,0,3,515,0
244,93,16,74,0,0,0,1,0,146,0,0,0,0,0,1,0,1,1,0,1,334,0,0,334,0
245,91,29,165,0,1,0,1,1,193,0,64,0,1,1,4,0,0,0,0,0,551,0,3,554,0
246,76,11,78,5,0,0,0,0,146,0,1,0,1,0,2,0,0,0,0,1,321,0,1,322,0
247,120,37,107,0,0,0,1,0,176,0,41,0,0,1,2,1,1,0,0,0,487,0,1,488,0
248,88,34,93,3,0,0,0,1,191,0,11,0,0,0,3,0,0,0,0,0,424,0,0,424,0
249,90,22,169,3,0,0,0,1,214,0,2,0,0,0,0,0,1,0,0,1,503,0,0,503,0
250,56,22,165,0,0,0,1,0,155,1,9,0,0,0,1,0,0,0,0,0,410,0,1,411,0
251,95,22,123,3,0,0,0,0,156,0,2,0,0,0,0,0,1,0,1,0,403,0,4,407,0
252,69,20,121,1,2,0,1,0,183,1,6,0,0,0,0,0,0,1,1,1,407,0,1,408,0
253,114,35,170,2,2,1,0,3,275,0,9,0,0,0,1,1,3,1,0,1,618,0,1,619,0
254,134,53,182,2,0,0,0,0,256,0,64,0,0,1,3,0,2,0,1,1,699,0,2,701,0
255,94,19,114,1,0,3,1,0,180,0,6,0,0,0,0,0,2,0,0,0,420,0,1,421,0
256,160,31,114,1,0,0,0,1,351,1,16,0,0,0,0,0,1,0,1,0,677,0,0,677,0
257,248,32,161,1,0,0,1,0,340,0,2,0,1,2,1,1,3,0,1,1,795,0,0,795,0
258,136,42,127,1,0,1,0,1,287,1,2,0,0,0,2,1,3,0,0,0,604,0,0,604,0
259,117,20,113,0,1,0,1,0,229,2,0,0,0,0,1,0,0,0,0,0,484,0,0,484,0
260,117,25,157,1,0,0,0,0,255,1,8,0,0,0,2,0,1,0,0,0,567,0,1,568,0
261,111,22,139,0,0,0,0,1,205,0,5,1,0,0,1,1,1,0,1,2,490,0,1,491,0
262,201,78,190,1,1,1,0,2,314,0,53,2,0,0,3,2,2,1,0,1,852,0,1,853,0
263,187,52,144,0,1,1,1,0,159,0,1,0,1,1,2,1,0,0,0,0,551,0,6,557,0
264,108,37,312,1,0,0,0,2,128,0,0,0,0,1,0,1,1,1,2,0,594,0,5,599,0
265,66,36,213,2,0,0,0,2,190,0,1,0,0,1,0,1,1,1,1,1,516,0,0,516,0
266,68,27,266,1,0,1,0,0,169,0,85,0,1,2,0,0,1,0,1,2,624,0,3,627,0
267,70,23,93,0,0,0,0,1,137,0,6,0,0,1,1,0,0,0,0,0,332,0,0,332,0
268,41,18,329,3,0,0,0,1,123,1,5,1,0,0,2,0,0,0,0,0,524,0,2,526,0
269,5,3,358,2,0,0,1,0,36,0,0,1,0,0,0,0,0,0,0,0,406,0,0,406,0
270,45,13,84,2,2,1,1,0,142,0,0,0,0,0,0,0,1,1,2,0,294,0,1,295,0
271,106,17,104,0,0,0,1,0,161,0,0,0,1,0,0,0,0,0,0,0,390,0,2,392,0
272,125,27,255,4,0,0,1,3,290,1,0,1,0,0,1,0,0,0,1,2,711,0,4,715,0
273,60,7,244,6,0,0,0,0,126,0,1,0,0,0,0,0,0,0,0,0,444,0,0,444,0
274,79,14,159,2,0,1,0,0,134,0,0,0,1,0,2,0,0,1,0,0,393,0,1,394,0
275,113,33,120,2,0,0,0,0,236,0,0,1,0,1,1,1,0,0,1,0,509,0,5,514,0
276,105,30,140,1,1,0,1,0,204,0,0,0,0,0,1,0,0,0,0,0,483,0,4,487,0
277,179,31,113,13,0,2,0,0,261,0,0,0,0,0,2,2,1,0,2,0,606,0,1,607,0
278,142,29,195,3,0,0,0,0,250,1,0,1,0,0,0,1,1,1,5,0,629,0,2,631,0
279,171,33,217,1,1,0,1,0,262,2,0,1,0,0,2,0,3,0,3,0,697,0,3,700,0
280,83,29,221,0,0,0,0,1,200,0,0,0,0,0,0,0,0,0,0,0,534,0,3,537,0
281,43,12,369,1,0,0,0,0,173,0,1,0,0,1,2,0,0,0,1,4,607,0,3,610,0
282,103,39,252,4,0,0,0,2,346,1,1,0,0,2,1,0,0,0,3,0,754,0,3,757,0
283,123,25,215,4,1,0,1,3,327,1,1,1,0,0,1,0,0,0,0,0,703,0,1,704,0
284,131,46,137,7,0,0,0,2,230,1,0,0,0,0,3,2,1,0,2,0,562,0,2,564,0
285,179,43,187,4,0,1,0,1,281,0,3,1,0,2,2,0,0,0,0,0,704,0,1,705,0
286,103,14,81,2,0,0,1,0,160,0,0,0,0,1,0,1,1,0,0,0,364,0,4,368,0
287,76,17,103,0,1,0,0,1,150,0,0,3,0,0,0,2,0,0,0,0,353,0,0,353,0
288,125,31,196,0,0,0,2,0,204,0,0,0,0,0,1,0,0,0,0,0,559,0,3,562,0
289,25,14,229,0,0,0,0,0,134,1,1,0,0,1,1,1,1,0,1,0,409,0,4,413,0
290,153,27,109,0,0,2,2,0,235,0,2,0,0,0,1,3,3,0,0,1,538,0,3,541,0
291,85,18,169,1,1,0,0,1,166,0,0,1,0,0,0,0,1,0,1,0,444,0,1,445,0
292,87,16,264,3,1,0,0,0,182,0,0,0,0,0,0,1,0,0,1,0,555,0,0,555,0
293,157,36,274,4,1,0,0,0,284,0,0,0,0,0,0,1,2,0,0,2,761,0,3,764,0
294,63,20,412,1,1,0,0,0,212,0,8,0,1,0,1,0,0,0,5,0,724,0,0,724,0
295,30,15,74,1,0,0,0,0,98,0,2,0,0,0,0,0,0,0,0,0,220,0,0,220,0
296,64,23,168,0,1,0,0,0,120,0,38,1,0,1,0,2,0,1,1,0,420,0,2,422,0
297,63,6,283,1,0,0,0,0,372,0,1,0,0,2,2,2,2,0,0,0,734,0,0,734,0
298,161,34,206,1,0,0,0,0,304,1,0,0,0,0,3,0,0,0,1,0,711,0,1,712,0
299,79,25,164,1,0,0,0,1,154,0,0,0,0,0,0,0,0,0,2,0,426,0,3,429,0
300,143,34,187,1,1,0,0,0,224,0,2,0,1,1,2,0,0,0,0,1,597,0,1,598,0
301,97,16,102,1,0,0,1,0,160,0,1,0,0,0,0,0,0,2,3,1,384,0,0,384,0
302,134,18,94,0,0,1,0,0,163,0,4,0,0,0,0,0,0,0,0,0,414,0,3,417,0
303,68,13,126,0,0,0,1,0,141,0,0,0,0,0,0,0,1,0,0,0,350,0,2,352,0
304,111,21,132,0,0,2,0,2,154,2,0,0,0,0,0,0,1,0,1,0,426,0,3,429,0
305,105,17,108,0,0,0,0,0,131,0,0,1,0,0,0,1,1,0,1,0,365,0,1,366,0
306,235,51,145,1,0,0,0,3,282,2,0,0,0,2,1,1,0,1,1,2,727,0,5,732,0
307,140,17,160,1,0,1,0,0,214,0,0,0,0,0,1,0,1,0,1,0,536,0,7,543,0
308,137,23,129,2,1,0,0,0,189,0,0,0,0,0,1,1,0,0,1,3,487,0,3,490,0
309,156,21,166,1,1,2,1,2,239,0,1,0,0,1,1,2,1,0,0,0,595,0,1,596,0
310,148,26,114,0,0,0,0,0,181,0,0,0,0,1,0,2,0,0,0,1,473,0,6,479,0
311,112,24,115,0,1,0,0,0,116,0,0,0,0,0,0,0,2,1,0,1,372,0,4,376,0
312,140,27,139,0,0,0,0,1,171,1,0,0,0,0,0,0,0,1,1,0,481,0,1,482,0
313,124,43,109,0,0,2,3,1,226,0,1,1,0,0,2,1,0,1,1,0,515,0,1,516,0
314,104,16,65,0,0,0,0,0,145,0,1,0,0,0,0,1,0,1,1,0,334,0,0,334,0
315,103,15,75,3,0,1,1,0,141,0,0,1,0,0,1,0,0,0,0,0,341,0,2,343,0
316,133,7,57,0,0,1,1,0,133,0,1,0,1,0,0,0,0,0,1,1,336,0,1,337,0
317,167,34,192,1,0,1,0,2,290,1,2,0,0,0,0,0,0,1,0,1,692,0,1,693,0
318,37,13,61,0,0,0,0,0,70,0,1,0,0,0,1,0,0,0,0,0,183,0,0,183,0
319,152,23,144,1,1,0,0,0,204,0,0,0,1,0,1,0,0,1,1,0,529,0,3,532,0
320,88,7,73,0,0,0,0,0,61,0,0,1,0,0,0,0,0,0,1,0,231,0,0,231,0
321,108,9,78,0,0,1,0,0,138,0,0,0,0,0,1,0,1,0,0,0,336,0,2,338,0
322,105,8,99,0,0,0,0,0,116,0,0,0,0,0,0,1,1,0,3,0,333,0,2,335,0
323,153,26,195,0,1,0,0,0,166,0,3,0,0,1,0,2,0,0,1,0,548,0,2,550,0
324,119,15,94,0,0,0,0,2,155,1,1,1,1,0,0,1,0,0,1,0,391,0,1,392,0
325,148,19,99,1,0,1,0,0,164,0,1,0,0,2,0,1,0,0,0,0,436,0,4,440,0
326,78,18,121,0,0,0,0,1,269,0,1,1,0,2,2,0,1,0,1,0,495,0,1,496,0
327,100,63,170,3,1,0,0,1,242,0,0,0,0,0,2,2,1,0,2,0,587,0,1,588,0
328,94,38,120,1,1,0,0,0,189,1,0,0,1,1,1,0,0,0,0,0,447,0,2,449,0
329,156,52,146,7,0,0,0,0,363,0,2,1,0,0,0,1,0,0,0,1,729,0,3,732,0
330,144,42,89,5,0,0,0,0,229,0,0,0,1,0,0,1,0,0,0,2,513,0,0,513,0
331,42,8,84,1,0,2,0,0,79,0,0,0,0,0,0,0,0,0,0,0,216,0,0,216,0
332,107,66,158,3,0,0,1,1,233,1,0,0,0,0,1,2,0,0,0,0,573,0,2,575,0
333,162,57,112,3,0,1,0,0,245,1,0,1,0,0,2,1,0,1,0,1,587,0,1,588,0
334,225,41,165,7,1,0,1,1,323,0,0,0,0,1,2,0,0,0,0,1,768,0,2,770,0
335,124,38,84,4,0,0,0,0,237,0,2,0,0,1,0,2,1,0,0,0,493,0,3,496,0
336,131,26,96,1,0,0,0,4,193,0,1,0,0,1,1,0,1,0,2,0,457,0,1,458,0
337,61,29,232,0,0,0,0,2,244,0,17,1,0,0,3,1,0,0,0,0,590,0,2,592,0
338,56,21,166,1,0,0,0,0,114,0,67,0,1,1,1,0,0,0,1,0,429,0,0,429,0
339,74,19,211,0,0,0,1,0,126,0,61,3,0,1,1,0,1,0,2,0,500,0,0,500,0
340,36,24,340,1,1,0,0,1,170,0,53,6,0,1,0,0,0,0,0,0,633,0,5,638,0
341,55,32,133,0,0,1,0,1,189,0,9,0,0,0,2,0,0,0,0,1,423,0,0,423,0
342,114,39,125,0,0,0,0,1,211,0,30,4,1,2,3,1,0,1,0,0,532,0,0,532,0
343,149,91,162,1,1,0,0,1,305,2,0,1,0,2,0,0,1,0,0,0,716,0,2,718,0
344,150,58,136,0,1,0,0,0,176,0,1,0,0,1,0,1,1,1,1,0,527,0,0,527,0
345,162,70,178,0,0,3,0,0,260,0,0,1,2,1,1,0,1,1,2,0,682,0,4,686,0
346,103,85,132,3,0,0,1,1,218,0,1,0,0,1,2,1,0,1,0,0,549,0,2,551,0
347,118,72,120,3,0,1,0,2,228,2,0,0,0,1,3,1,0,0,0,4,555,0,0,555,0
348,114,62,132,0,0,0,0,0,262,2,2,0,0,0,2,0,0,0,0,2,578,0,2,580,0
349,116,46,122,1,0,0,0,0,240,0,3,1,0,0,2,0,1,0,0,0,532,0,2,534,0
350,182,51,113,2,2,0,1,1,294,3,3,0,1,0,3,2,2,1,2,0,663,0,1,664,0
351,284,41,77,0,0,3,0,0,238,0,0,0,0,1,0,1,2,0,0,1,648,0,0,648,0
352,170,30,82,1,0,0,0,0,149,0,2,0,0,0,0,1,2,0,0,2,439,0,2,441,0
353,131,31,86,1,0,0,0,1,210,0,2,0,0,0,0,0,1,0,0,0,463,0,3,466,0
354,129,53,139,0,0,0,0,1,212,0,1,0,0,0,0,0,2,0,0,0,537,0,0,537,0
355,81,33,104,5,0,0,0,0,170,1,1,0,0,1,0,0,2,0,1,0,399,0,1,400,0
356,122,46,128,2,0,1,0,0,266,2,31,1,0,0,4,0,0,1,1,2,607,0,6,613,0
357,59,34,139,1,0,0,0,0,165,1,154,2,1,0,1,0,3,1,0,0,561,0,4,565,0
358,88,37,131,1,1,0,0,1,163,0,133,1,0,0,1,4,3,0,1,0,565,0,7,572,0
359,288,58,164,1,0,0,0,1,212,0,96,0,0,0,0,1,1,0,0,1,823,0,0,823,0
360,152,34,182,1,0,1,0,0,227,1,11,0,0,0,1,0,1,0,0,0,611,0,5,616,0
361,109,21,143,0,0,0,0,1,146,1,3,1,0,2,0,0,0,0,0,0,427,0,3,430,0
362,172,18,115,0,0,0,1,1,187,0,0,0,1,0,1,1,0,0,0,0,497,0,4,501,0
363,194,22,199,2,0,1,0,1,256,0,28,0,0,1,0,0,1,0,0,0,705,0,7,712,0
364,182,44,116,2,1,1,0,0,261,0,1,0,0,0,1,0,1,0,1,2,613,0,5,618,0
365,173,31,138,0,0,0,0,1,205,0,3,0,0,0,0,0,0,0,1,0,552,0,5,557,0
366,63,18,65,1,0,0,0,0,105,0,2,0,0,0,0,0,0,0,0,1,255,0,2,257,0
367,201,53,132,0,0,0,0,0,240,0,0,0,0,0,2,0,1,0,1,0,630,0,1,631,0
368,199,42,131,2,0,0,0,1,287,1,2,0,0,0,1,1,0,0,1,0,668,0,1,669,0
369,314,33,54,0,0,0,0,1,267,0,1,0,0,0,0,2,4,0,0,1,677,0,3,680,0
370,117,51,200,3,1,0,1,1,309,2,66,2,1,0,3,1,0,0,4,1,763,0,1,764,0
371,119,76,239,2,0,1,0,1,316,1,73,1,1,0,1,0,1,1,4,0,837,0,4,841,0
372,286,50,151,2,2,0,0,0,234,0,2,0,0,0,6,0,7,0,3,0,743,0,1,744,0
373,245,62,144,3,0,2,0,2,269,2,3,1,0,0,1,1,6,0,0,2,743,0,0,743,0
374,87,40,72,0,0,0,0,0,104,0,0,0,0,1,1,0,0,0,0,1,306,0,0,306,0
375,68,48,147,2,0,0,0,1,240,0,62,1,0,0,1,0,0,0,0,0,570,0,1,571,0
376,150,54,210,0,0,0,0,0,288,1,13,0,0,0,4,0,0,0,1,1,722,0,3,725,0
377,113,53,202,0,0,0,2,4,274,0,43,4,0,1,2,0,0,0,0,0,698,0,3,701,0
378,140,44,278,3,0,1,0,1,189,1,66,1,0,0,0,2,4,0,3,3,736,0,3,739,0
379,90,22,214,1,0,0,0,3,173,0,86,0,0,2,4,0,0,0,0,0,595,0,1,596,0
380,38,7,56,0,0,1,0,2,50,1,26,0,0,0,1,1,0,0,0,0,183,0,0,183,0
381,162,39,139,1,0,0,0,0,183,1,3,0,0,1,0,0,0,1,2,0,532,0,3,535,0
382,144,34,167,1,1,0,0,1,235,0,0,0,0,0,1,0,1,0,0,0,585,0,4,589,0
383,95,57,128,1,0,0,0,0,149,0,1,0,0,0,1,1,1,0,0,0,434,0,3,437,0
384,100,31,116,2,0,0,0,0,143,0,1,0,0,0,0,0,0,0,0,0,393,0,3,396,0
385,120,28,94,0,1,0,0,1,199,0,1,0,0,0,0,0,2,0,0,0,446,0,0,446,0
386,168,38,195,1,1,0,0,1,268,0,1,1,0,1,0,0,0,1,1,2,679,0,5,684,0
