Polling Station No,SUBRAMANI.P,SENDHIL KUMAR.G,MURUGESAN.G,ANBARASU.P,SUNDARAMMAL,SYED FAROOQ BASHA SSB,SYED BHURHANUDEEN,DEVENDRAN.J,ABDUL WAHID.A,SRINIVASAN.A,SELVARAJ.M,NAVEEN.R,MANJUNATH.K,MANOJ.S,RAJESH.T,Total Valid Votes,Rejected Votes,NOTA,Total,Tendered Votes
1,1,449,23,4,3,205,263,0,0,1,0,0,2,3,1,955,0,3,958,0
2,1,348,12,1,4,105,190,1,1,0,0,0,0,2,0,665,0,1,666,0
3,4,299,32,2,1,173,331,2,1,0,1,1,0,2,0,849,0,1,850,0
4,2,360,35,0,3,192,303,0,1,0,0,0,1,0,1,898,0,3,901,0
5,0,218,28,0,0,142,100,0,0,0,0,1,0,1,1,491,0,1,492,0
6,1,163,16,2,1,97,141,0,0,0,0,2,1,0,1,425,0,3,428,0
7,3,201,12,0,5,117,214,0,0,0,0,1,0,1,0,554,0,2,556,0
8,4,220,11,3,1,83,160,1,0,2,0,0,0,0,0,485,0,0,485,0
9,0,178,9,0,2,145,182,0,0,0,0,0,0,0,2,518,0,0,518,0
10,3,275,21,0,2,146,241,0,0,0,0,0,0,0,0,688,0,0,688,0
11,5,308,23,2,3,176,315,3,0,2,0,1,1,1,0,840,0,4,844,0
12,0,298,17,0,1,151,196,0,1,0,1,1,0,0,1,667,0,4,671,0
13,3,247,17,1,0,127,190,1,0,0,0,1,0,0,0,587,0,3,590,0
14,6,418,35,1,1,179,241,0,1,1,0,0,2,0,0,885,0,3,888,0
15,0,181,21,0,2,151,219,0,1,0,0,0,1,0,1,577,0,2,579,0
16,4,168,15,0,2,132,208,1,0,2,0,0,0,3,2,537,0,2,539,0
17,8,238,10,0,1,95,204,1,0,0,1,0,0,0,1,559,0,0,559,0
18,2,227,22,0,2,151,283,1,0,1,0,1,0,4,0,694,0,0,694,0
19,5,430,42,1,6,178,334,0,1,1,2,5,2,1,1,1009,0,5,1014,0
20,4,344,21,4,5,240,338,1,0,0,1,0,0,0,0,958,0,3,961,0
21,8,307,43,0,0,120,255,0,0,1,1,1,1,1,1,739,0,2,741,0
22,1,289,37,2,3,129,289,1,0,1,0,0,2,1,0,755,0,1,756,0
23,0,277,19,0,4,196,312,3,1,0,0,0,0,0,0,812,0,2,814,0
24,1,279,20,0,1,97,149,0,0,0,0,0,0,1,0,548,0,0,548,0
25,0,181,8,1,2,214,137,1,0,0,0,0,0,0,0,544,0,3,547,0
26,2,383,25,1,0,172,354,0,0,0,2,0,0,0,2,941,0,4,945,0
27,1,318,13,4,1,177,388,0,1,1,0,1,2,2,1,910,0,2,912,0
28,1,62,6,0,2,433,154,1,0,0,0,0,0,0,0,659,0,0,659,0
29,0,30,1,0,0,492,87,1,0,0,0,0,0,0,1,612,0,2,614,0
30,1,83,4,0,2,540,130,1,0,1,0,0,0,0,1,763,0,1,764,0
31,6,347,41,0,1,234,383,1,0,0,0,0,0,1,0,1014,0,0,1014,0
32,0,38,5,0,6,493,121,0,1,0,0,0,0,0,1,665,0,2,667,0
33,2,71,19,0,3,632,199,1,0,0,0,1,1,1,0,930,0,2,932,0
34,0,30,5,0,0,434,87,0,0,0,0,0,1,0,0,557,0,1,558,0
35,1,14,1,0,2,443,63,0,0,1,1,0,1,0,0,527,0,0,527,0
36,6,278,28,0,1,253,298,0,0,0,1,0,0,0,1,866,0,2,868,0
37,4,466,42,2,2,168,333,1,1,1,1,1,0,1,0,1023,0,2,1025,0
38,0,247,15,0,0,122,220,1,0,0,0,0,0,0,0,605,0,4,609,0
39,1,341,27,0,1,228,383,2,2,1,0,0,3,0,1,990,0,4,994,0
40,3,127,17,1,1,122,200,1,1,0,1,0,0,1,1,476,0,0,476,0
41,2,307,27,1,1,245,407,1,0,0,2,2,0,2,1,998,0,2,1000,0
42,2,236,18,0,3,157,265,0,0,0,0,0,0,0,0,681,0,3,684,0
43,3,137,14,0,3,100,80,0,0,0,0,0,0,0,0,337,0,0,337,0
44,0,188,25,3,1,255,276,1,0,1,0,1,1,0,0,752,0,1,753,0
45,2,280,35,1,2,176,303,1,1,0,0,1,1,1,1,805,0,4,809,0
46,6,309,28,2,1,200,283,4,2,2,0,2,1,2,0,842,0,3,845,0
47,0,132,30,1,4,80,267,1,0,0,1,0,0,0,0,516,0,1,517,0
48,2,136,13,1,3,140,124,1,0,0,0,0,4,1,2,427,0,3,430,0
49,2,282,30,2,2,172,374,1,2,2,1,1,0,4,2,877,0,2,879,0
50,2,238,27,1,5,216,218,0,0,1,1,3,0,1,1,714,0,1,715,0
51,3,186,27,0,1,165,211,1,1,0,0,0,1,1,1,598,0,1,599,0
52,1,248,23,0,6,140,271,0,0,0,0,0,0,0,0,689,0,1,690,0
53,1,369,34,3,3,36,374,1,3,3,0,0,0,1,2,830,0,1,831,0
54,4,320,42,1,4,105,327,0,1,1,1,0,2,0,1,809,0,1,810,0
55,4,331,17,1,5,82,308,0,0,0,0,1,0,2,2,753,0,4,757,0
56,2,220,11,0,1,53,191,1,0,0,0,0,1,0,0,480,0,1,481,0
57,4,244,25,0,2,141,218,0,0,1,1,0,0,2,2,640,0,1,641,0
58,4,162,19,1,2,126,142,1,0,1,0,1,1,1,1,462,0,1,463,0
59,0,127,22,0,1,88,281,0,0,0,0,1,0,0,0,520,0,0,520,0
60,1,199,6,0,3,146,119,0,0,0,0,2,0,0,0,476,0,2,478,0
61,1,272,33,0,2,248,266,3,1,4,0,0,0,2,2,834,0,5,839,0
62,2,257,24,0,1,204,281,10,0,0,0,1,0,0,0,780,0,2,782,0
63,1,219,17,0,0,218,275,2,0,1,0,0,0,0,1,734,0,0,734,0
64,2,445,38,1,3,148,269,1,0,0,0,0,1,0,0,908,0,3,911,0
65,2,250,16,1,1,163,194,0,0,0,0,1,0,0,0,628,0,1,629,0
66,1,193,18,2,2,160,236,0,0,0,0,0,0,0,0,612,0,3,615,0
67,3,152,16,1,3,107,318,4,0,3,1,0,0,0,1,609,0,0,609,0
68,0,144,18,0,2,145,255,1,1,1,0,0,0,4,0,571,0,3,574,0
69,1,51,5,1,1,535,77,1,0,1,0,0,0,1,0,674,0,1,675,0
70,0,4,1,0,3,412,43,0,0,0,1,0,1,0,0,465,0,1,466,0
71,1,11,0,0,0,602,62,0,0,0,0,0,0,0,0,676,0,1,677,0
72,1,20,4,0,2,350,122,0,0,0,0,0,1,0,0,500,0,0,500,0
73,0,29,3,0,2,373,126,0,0,0,0,0,0,0,0,533,0,1,534,0
74,0,12,2,0,1,568,78,0,0,0,0,0,0,0,0,661,0,0,661,0
75,0,4,1,2,0,547,68,0,0,0,0,0,1,0,0,623,0,1,624,0
76,1,16,0,0,0,547,50,0,0,0,0,0,0,0,0,614,0,0,614,0
77,1,205,5,0,1,274,235,1,0,0,0,0,0,0,2,724,0,1,725,0
78,0,204,11,0,0,70,193,0,0,1,0,0,0,0,0,479,0,3,482,0
79,2,199,10,0,0,87,179,0,0,0,0,0,0,1,0,478,0,3,481,0
80,4,234,14,0,0,94,224,0,0,0,0,0,0,0,0,570,0,2,572,0
81,3,216,11,0,0,123,282,0,0,3,2,2,0,0,0,642,0,4,646,0
82,2,194,15,1,2,101,206,0,1,0,0,0,0,0,0,522,0,3,525,0
83,1,202,14,0,2,148,365,0,1,0,0,0,0,0,1,734,0,4,738,0
84,0,156,5,0,2,183,257,0,0,1,1,0,0,0,0,605,0,0,605,0
85,1,62,5,0,0,181,290,0,1,0,1,0,0,0,0,541,0,1,542,0
86,0,150,7,1,0,90,150,1,0,0,0,0,0,0,1,400,0,7,407,0
87,0,154,6,0,1,92,150,0,0,0,0,0,0,0,0,403,0,2,405,0
88,3,275,13,0,1,127,231,0,0,0,0,0,0,1,0,651,0,2,653,0
89,1,84,6,0,1,570,97,0,0,0,0,0,0,0,0,759,0,6,765,0
90,0,15,3,0,1,523,56,0,0,0,0,0,0,0,0,598,0,2,600,0
91,2,22,1,0,1,450,40,0,0,0,1,0,0,0,1,518,0,0,518,0
92,2,47,5,0,1,435,94,0,0,0,0,0,0,0,0,584,0,1,585,0
93,0,36,12,0,1,410,54,0,0,0,0,0,0,0,0,513,0,2,515,0
94,0,5,1,0,0,507,39,0,0,0,0,0,0,0,0,552,0,1,553,0
95,1,11,0,0,0,433,38,1,0,0,0,0,1,0,0,485,0,0,485,0
96,3,7,0,0,1,459,49,0,0,0,0,0,0,0,0,519,0,0,519,0
97,1,12,2,0,1,666,98,1,0,1,0,0,1,0,0,783,0,2,785,0
98,1,10,0,1,1,633,74,0,0,0,0,0,0,0,0,720,0,0,720,0
99,2,10,1,0,0,735,104,0,1,0,1,1,0,0,0,855,0,3,858,0
100,0,13,1,0,0,381,65,0,0,0,1,0,0,0,0,461,0,2,463,0
101,0,5,1,0,0,385,46,0,0,0,2,0,0,0,0,439,0,1,440,0
102,1,14,2,0,0,801,127,0,2,0,0,0,0,0,0,947,0,0,947,0
103,1,4,0,0,1,466,56,1,0,0,0,0,0,0,0,529,0,0,529,0
104,1,7,1,0,1,479,55,0,1,0,1,0,1,0,0,547,0,0,547,0
105,1,8,0,0,0,475,46,0,0,1,0,0,0,0,0,531,0,0,531,0
106,3,21,0,0,0,676,113,0,0,0,0,1,0,0,0,814,0,4,818,0
107,1,9,2,0,1,598,75,0,0,0,0,0,0,0,0,686,0,0,686,0
108,2,18,0,0,1,540,123,0,2,0,0,0,1,0,0,687,0,1,688,0
109,1,4,0,1,3,552,63,0,0,0,0,0,0,1,1,626,0,0,626,0
110,0,10,1,2,1,644,42,1,0,0,0,0,0,1,0,702,0,1,703,0
111,0,4,0,0,2,529,37,0,0,0,1,0,0,0,0,573,0,2,575,0
112,1,96,6,0,0,353,114,1,1,0,0,0,0,0,0,572,0,1,573,0
113,0,59,7,0,1,419,94,1,0,0,0,0,0,3,1,585,0,2,587,0
114,2,187,16,0,0,321,351,1,0,1,0,1,0,0,0,880,0,0,880,0
115,1,9,1,0,0,537,37,0,0,1,0,0,0,0,0,586,0,1,587,0
116,0,4,0,0,1,513,34,0,0,0,0,0,0,0,0,552,0,0,552,0
117,1,6,0,0,0,634,39,0,0,0,0,0,1,0,0,681,0,1,682,0
118,0,5,2,1,0,772,119,0,0,1,0,0,0,0,0,900,0,2,902,0
119,1,57,5,0,0,597,157,1,0,0,0,0,1,0,0,819,0,3,822,0
120,1,52,1,0,0,613,164,1,2,0,1,2,0,0,0,837,0,4,841,0
121,1,19,2,0,3,728,74,0,0,0,0,1,0,0,0,828,0,1,829,0
122,0,8,1,0,0,526,47,0,0,0,0,0,0,0,0,582,0,0,582,0
123,2,43,2,0,2,602,91,0,0,0,0,1,0,0,0,743,0,2,745,0
124,2,94,6,0,1,420,138,0,1,0,0,0,0,0,1,663,0,0,663,0
125,2,127,4,0,2,424,160,0,0,0,0,0,1,0,0,720,0,0,720,0
126,2,25,6,1,1,477,250,0,0,0,0,0,1,0,0,763,0,1,764,0
127,0,24,8,1,1,522,127,1,1,0,1,0,0,0,2,688,0,2,690,0
128,1,13,2,0,1,504,196,0,2,1,0,1,1,0,0,722,0,0,722,0
129,3,101,10,0,2,199,344,0,0,0,0,0,0,0,0,659,0,2,661,0
130,0,85,12,0,2,154,280,2,0,1,0,0,1,0,0,537,0,1,538,0
131,0,95,5,0,1,185,314,2,0,0,0,0,0,0,0,602,0,1,603,0
132,0,104,11,0,0,167,277,2,0,0,0,0,1,1,0,563,0,2,565,0
133,2,122,10,0,1,179,282,2,0,0,1,0,0,0,0,599,0,4,603,0
134,1,160,8,1,3,244,373,1,0,1,0,0,0,0,0,792,0,3,795,0
135,1,252,20,0,0,119,295,2,0,0,1,1,0,0,0,691,0,3,694,0
136,3,97,7,0,1,136,202,0,1,1,1,1,0,2,0,452,0,7,459,0
137,1,177,15,4,2,107,244,0,1,3,3,4,4,1,3,569,0,14,583,0
138,3,187,24,0,0,169,361,1,1,2,0,0,1,1,1,751,0,6,757,0
139,2,83,10,1,2,276,219,0,0,0,1,0,1,0,1,596,0,1,597,0
140,0,70,3,0,1,244,232,1,0,0,0,0,1,0,1,553,0,0,553,0
141,0,67,4,2,1,256,181,0,0,2,1,0,2,0,0,516,0,0,516,0
142,5,60,6,2,3,329,249,1,0,0,2,1,0,0,1,659,0,2,661,0
143,0,74,12,3,2,312,263,1,0,0,0,0,2,0,0,669,0,1,670,0
144,1,115,4,4,2,320,209,1,0,0,0,2,2,0,1,661,0,0,661,0
145,1,69,16,1,1,501,238,0,0,0,0,0,0,0,0,827,0,2,829,0
146,0,77,2,0,2,363,180,1,0,1,1,0,0,0,0,627,0,0,627,0
147,2,94,6,0,0,217,202,1,0,0,1,0,0,0,0,523,0,2,525,0
148,1,77,5,1,5,270,148,0,0,0,1,1,2,0,1,512,0,2,514,0
149,1,39,8,0,4,422,135,0,0,0,1,0,0,1,0,611,0,1,612,0
150,0,112,5,0,3,393,181,0,0,0,0,0,0,0,1,695,0,3,698,0
151,1,79,8,1,0,359,146,1,2,0,2,3,0,0,1,603,0,0,603,0
152,1,40,1,2,0,351,80,0,0,0,0,1,0,0,0,476,0,2,478,0
153,3,36,2,1,2,491,128,0,0,0,0,0,0,0,0,663,0,0,663,0
154,1,173,6,0,2,138,173,1,0,0,0,0,0,0,1,495,0,0,495,0
155,5,102,22,1,0,331,196,0,2,0,1,0,0,0,0,660,0,7,667,0
156,0,123,11,0,1,234,209,0,1,0,0,0,0,0,3,582,0,1,583,0
157,2,124,9,2,0,155,215,0,0,0,0,1,1,0,0,509,0,3,512,0
158,1,97,7,1,1,167,218,0,0,1,0,0,0,2,0,495,0,3,498,0
159,1,132,10,2,4,251,233,4,0,0,0,0,0,0,0,637,0,4,641,0
160,3,128,15,0,1,156,401,2,0,1,0,0,1,0,3,711,0,4,715,0
161,3,195,5,1,0,145,214,0,1,0,0,0,0,1,0,565,0,1,566,0
162,3,72,13,0,1,347,200,1,0,0,0,0,0,0,0,637,0,4,641,0
163,2,56,5,1,0,203,132,2,0,0,0,0,0,1,0,402,0,0,402,0
164,1,156,19,0,2,169,384,0,0,0,0,0,0,0,1,732,0,0,732,0
165,1,154,11,1,2,96,249,0,1,1,0,0,0,0,0,516,0,0,516,0
166,3,128,4,0,1,108,261,0,0,0,0,0,0,0,0,505,0,1,506,0
167,0,273,12,1,1,258,252,0,1,0,0,1,0,0,1,800,0,2,802,0
168,2,320,12,1,0,135,239,0,0,0,0,0,0,0,1,710,0,2,712,0
169,0,187,29,1,1,217,296,0,0,1,0,0,0,0,0,732,0,0,732,0
170,3,408,21,0,1,180,344,0,0,11,0,2,0,1,1,972,0,5,977,0
171,1,184,12,0,1,165,335,0,0,0,0,0,1,1,0,700,0,5,705,0
172,4,146,16,0,3,171,371,0,0,1,0,0,1,1,1,715,0,3,718,0
173,0,225,9,0,2,142,172,0,0,0,2,1,0,0,1,554,0,1,555,0
174,0,173,13,0,2,148,188,1,0,0,0,0,2,0,0,527,0,2,529,0
175,0,126,30,1,2,148,416,0,0,1,0,0,0,1,1,726,0,1,727,0
176,2,70,11,1,1,185,280,1,2,0,0,0,0,0,0,553,0,1,554,0
177,3,82,21,0,2,155,243,1,0,0,1,0,0,0,1,509,0,1,510,0
178,2,160,19,1,2,173,423,2,0,0,3,2,1,2,0,790,0,1,791,0
179,1,189,18,1,2,232,346,0,0,1,0,0,0,0,0,790,0,1,791,0
180,0,138,4,0,2,95,147,1,0,0,0,0,1,0,0,388,0,0,388,0
181,2,163,24,0,0,201,323,0,1,0,0,2,0,1,1,718,0,0,718,0
182,3,203,17,2,0,152,235,0,0,2,0,0,1,0,1,616,0,1,617,0
183,2,160,27,0,3,182,384,1,1,0,0,0,0,1,0,761,0,1,762,0
184,4,180,19,2,3,240,538,2,0,2,1,1,1,1,2,996,0,1,997,0
185,2,306,20,0,2,204,319,0,0,0,1,0,0,0,1,855,0,1,856,0
186,2,262,19,2,2,168,287,0,0,1,0,1,1,0,1,746,0,7,753,0
187,3,195,22,9,2,143,256,0,0,1,0,1,0,2,0,634,0,2,636,0
188,1,140,21,0,3,229,365,0,0,1,1,1,1,1,0,764,0,1,765,0
189,0,321,21,4,5,237,385,1,1,0,1,1,2,1,0,980,0,1,981,0
190,0,365,19,1,0,138,216,0,0,0,0,0,2,1,0,742,0,4,746,0
191,2,413,25,2,0,106,254,0,1,2,0,2,0,0,3,810,0,1,811,0
192,4,373,14,3,0,139,233,1,0,0,1,1,0,1,0,770,0,3,773,0
193,0,317,17,2,0,146,205,0,0,0,0,0,0,0,1,688,0,5,693,0
194,3,313,14,2,2,122,216,1,1,0,0,0,1,0,2,677,0,4,681,0
195,4,289,15,0,1,154,242,0,2,1,0,1,1,1,0,711,0,3,714,0
196,1,502,23,2,3,185,250,0,0,0,0,1,0,2,1,970,0,0,970,0
197,2,340,14,2,1,131,219,1,0,0,0,0,0,1,2,713,0,1,714,0
198,2,325,16,0,1,146,208,1,1,2,1,0,0,1,1,705,0,2,707,0
199,2,320,17,0,2,107,248,0,0,0,0,2,0,0,2,700,0,0,700,0
200,4,369,16,1,3,96,251,1,0,0,0,0,0,0,2,743,0,2,745,0
201,3,377,25,1,1,153,247,2,0,1,0,1,0,0,2,813,0,3,816,0
202,1,194,18,0,1,120,145,1,0,1,0,0,0,0,0,481,0,0,481,0
203,1,260,35,0,2,124,178,0,0,0,2,1,0,1,0,604,0,2,606,0
204,1,216,9,0,1,148,206,0,0,1,0,1,1,1,0,585,0,2,587,0
205,1,166,11,1,0,179,178,1,0,1,0,1,0,1,2,542,0,0,542,0
206,3,246,17,2,1,133,251,2,0,0,0,0,1,2,1,659,0,4,663,0
207,1,369,19,3,1,149,300,0,3,1,0,0,0,2,1,849,0,4,853,0
208,1,374,30,2,5,190,336,1,0,1,1,2,0,1,0,944,0,3,947,0
209,3,139,5,1,1,146,107,0,0,0,0,0,0,0,1,403,0,2,405,0
210,1,325,12,1,3,137,212,0,0,0,0,1,0,0,1,693,0,2,695,0
211,2,195,6,0,0,149,182,1,0,0,0,1,0,1,1,538,0,5,543,0
212,0,334,11,0,1,146,185,1,0,0,0,0,1,0,0,679,0,3,682,0
213,1,357,11,1,1,127,221,0,0,0,0,0,1,0,2,722,0,0,722,0
214,5,334,15,0,3,129,271,0,2,0,1,0,0,1,0,761,0,2,763,0
215,4,285,22,1,0,165,269,0,1,2,0,1,0,0,0,750,0,4,754,0
216,1,341,17,1,2,110,203,2,0,1,0,2,1,0,1,682,0,1,683,0
217,0,258,15,0,3,92,156,0,1,1,0,1,1,1,0,529,0,4,533,0
218,5,266,9,0,0,99,113,0,0,1,1,0,0,0,2,496,0,2,498,0
219,5,270,18,0,3,193,355,0,0,4,0,1,1,0,0,850,0,1,851,0
220,0,296,30,2,1,172,326,0,2,0,0,0,1,0,0,830,0,2,832,0
221,1,252,27,0,0,128,234,0,0,0,0,2,2,2,3,651,0,4,655,0
222,1,261,29,3,1,168,262,1,0,0,0,2,1,2,0,731,0,2,733,0
223,1,308,29,3,2,182,275,3,1,0,0,1,0,1,0,806,0,0,806,0
224,2,170,23,0,5,127,224,0,1,0,0,0,0,0,1,553,0,2,555,0
225,4,233,38,0,0,164,238,0,1,1,0,3,1,1,6,690,0,4,694,0
226,2,303,29,0,3,193,308,0,0,2,0,1,0,1,0,842,0,7,849,0
227,4,153,18,1,2,98,190,0,1,0,0,0,0,0,0,467,0,2,469,0
228,2,185,20,1,1,183,165,0,0,0,1,2,5,4,1,570,0,4,574,0
229,2,140,17,0,2,269,197,0,0,0,1,0,0,1,0,629,0,0,629,0
230,0,128,4,0,1,102,121,2,1,0,0,0,1,0,0,360,0,0,360,0
231,2,231,28,0,1,183,257,1,1,4,1,0,0,0,1,710,0,0,710,0
232,3,193,23,2,0,105,209,1,0,2,0,1,0,0,0,539,0,4,543,0
233,2,367,21,2,1,274,279,0,0,1,0,2,0,0,3,952,0,4,956,0
234,2,310,17,1,1,257,204,1,1,0,0,1,0,0,3,798,0,1,799,0
235,5,233,10,1,3,211,227,0,0,1,0,0,2,0,3,696,0,3,699,0
236,2,319,23,0,2,225,318,0,0,0,1,0,1,0,1,892,0,3,895,0
237,1,165,7,0,2,146,225,1,1,0,0,0,2,2,0,552,0,2,554,0
238,3,148,7,2,3,135,186,1,0,1,0,1,0,0,0,487,0,1,488,0
239,1,289,15,1,1,205,341,3,0,0,0,0,0,0,0,856,0,6,862,0
240,1,162,6,0,3,153,293,2,0,1,0,0,0,1,0,622,0,3,625,0
241,3,160,9,0,5,179,292,1,0,0,0,1,0,0,3,653,0,1,654,0
242,1,311,23,0,1,217,290,0,0,1,0,0,1,1,2,848,0,3,851,0
243,1,90,5,0,1,412,110,0,0,1,0,0,0,1,0,621,0,2,623,0
244,0,77,2,0,2,456,109,1,0,0,0,0,0,0,0,647,0,4,651,0
245,2,227,16,0,0,144,155,2,0,0,1,0,2,1,1,551,0,2,553,0
246,3,184,11,2,0,216,143,0,0,0,1,0,1,0,0,561,0,2,563,0
247,5,314,15,2,3,105,282,0,0,0,0,0,0,1,0,727,0,1,728,0
248,1,252,22,0,2,243,292,1,0,0,0,0,0,0,2,815,0,4,819,0
249,1,210,11,1,2,255,250,2,1,0,0,0,1,0,0,734,0,3,737,0
250,3,151,12,0,6,174,294,0,0,0,0,0,1,0,0,641,0,0,641,0
251,0,111,7,0,0,166,192,0,0,0,0,0,0,0,1,477,0,3,480,0
252,2,212,18,2,1,199,352,0,0,1,2,0,1,0,1,791,0,1,792,0
253,6,236,24,1,2,254,222,1,1,1,0,1,1,0,1,751,0,3,754,0
254,2,197,13,3,4,111,211,3,0,0,1,2,0,2,0,549,0,2,551,0
255,6,237,27,2,3,200,323,1,0,0,0,1,0,1,0,801,0,2,803,0
256,5,211,22,3,5,254,332,1,1,3,0,3,1,1,2,844,0,3,847,0
257,3,285,31,1,5,205,338,1,1,0,1,1,0,1,0,873,0,7,880,0
258,2,432,28,1,2,194,258,2,2,1,0,0,1,2,1,926,0,2,928,0
259,6,312,20,0,2,280,258,0,0,1,1,0,2,0,0,882,0,2,884,0
260,0,363,20,0,3,101,176,0,0,1,0,0,0,1,1,666,0,2,668,0
261,1,394,32,1,3,168,237,0,1,3,1,0,0,1,3,845,0,6,851,0
262,3,374,20,1,0,203,168,1,0,1,0,1,1,1,0,774,0,2,776,0
263,1,305,20,0,0,103,182,0,0,0,0,0,0,1,2,614,0,1,615,0
264,2,308,11,0,1,91,209,0,0,0,1,0,0,0,1,624,0,2,626,0
265,3,234,25,2,2,120,182,0,0,1,1,2,0,0,0,572,0,4,576,0
266,3,320,29,2,3,58,309,1,1,0,1,0,0,3,1,731,0,2,733,0
267,2,339,24,0,1,155,232,0,0,0,0,1,0,2,3,759,0,0,759,0
268,3,368,32,0,5,182,268,0,0,3,0,0,0,0,1,862,0,1,863,0
269,3,190,22,0,3,194,123,0,0,0,1,0,2,0,0,538,0,2,540,0
270,4,278,16,0,3,136,258,2,0,0,0,2,0,1,0,700,0,4,704,0
271,2,214,24,0,1,83,163,0,1,0,0,0,0,0,1,489,0,1,490,0
272,3,253,15,0,1,113,137,0,0,0,0,0,0,0,2,524,0,2,526,0
273,3,356,8,0,4,181,205,0,0,0,0,0,0,1,3,761,0,1,762,0
274,3,393,25,1,6,145,212,1,0,0,1,1,0,0,2,790,0,6,796,0
275,5,266,28,0,5,251,425,1,1,0,0,1,0,0,4,987,0,2,989,0
276,0,206,9,0,1,127,248,0,1,0,0,1,0,0,0,593,0,0,593,0
277,2,188,17,0,0,112,236,2,0,0,0,0,0,0,0,557,0,2,559,0
278,2,266,19,0,1,181,259,1,0,0,0,1,1,2,0,733,0,3,736,0
279,2,253,18,1,2,157,258,0,0,1,0,3,2,1,0,698,0,1,699,0
280,2,271,19,0,2,159,307,1,2,2,0,2,0,1,1,769,0,2,771,0
281,1,226,18,0,3,128,299,2,2,0,0,0,1,2,1,683,0,2,685,0
282,3,158,22,2,1,119,227,0,0,2,1,1,0,0,0,536,0,4,540,0
283,4,168,10,0,4,104,238,2,0,0,0,2,1,0,0,533,0,4,537,0
284,2,218,28,3,1,121,424,0,1,0,0,1,1,1,3,804,0,4,808,0
285,2,235,27,0,1,109,315,0,0,0,1,2,1,1,3,697,0,1,698,0
286,1,272,20,1,1,201,272,3,0,2,0,3,0,2,2,780,0,6,786,0
287,2,307,17,0,1,129,251,0,0,0,0,0,0,2,1,710,0,3,713,0
288,11,316,30,3,5,159,323,0,0,0,2,1,1,3,2,856,0,2,858,0
289,3,245,15,0,1,110,246,1,0,0,1,0,0,1,1,624,0,3,627,0
290,4,162,14,2,4,132,252,0,0,1,0,3,0,1,4,579,0,0,579,0
291,1,234,17,0,2,196,331,0,1,1,0,1,2,0,1,787,0,1,788,0
292,5,285,44,1,3,148,379,0,1,0,1,2,1,3,2,875,0,4,879,0
293,0,121,13,1,0,72,182,0,1,1,2,0,2,1,0,396,0,0,396,0
294,2,297,16,1,0,223,327,1,0,2,2,0,0,0,3,874,0,1,875,0
295,4,304,20,1,5,180,305,0,0,2,1,0,0,0,2,824,0,5,829,0
296,2,203,19,2,3,162,396,2,0,0,1,0,0,0,1,791,0,1,792,0
297,1,254,12,4,2,102,226,1,0,0,0,2,2,2,2,610,0,1,611,0
298,2,330,11,2,3,118,281,1,0,1,0,0,0,0,0,749,0,0,749,0
299,2,172,19,0,1,89,204,0,1,0,0,1,0,0,1,490,0,0,490,0
300,3,232,7,0,4,95,238,0,1,2,0,0,1,0,2,585,0,0,585,0
301,1,145,22,0,1,102,310,0,2,0,0,0,0,0,0,583,0,3,586,0
302,0,266,21,1,1,128,180,0,0,1,1,1,0,0,0,600,0,0,600,0
303,2,190,26,0,1,109,232,0,0,0,0,0,0,0,1,561,0,0,561,0
304,3,174,14,0,2,113,217,0,0,2,0,0,1,0,1,527,0,2,529,0
305,0,298,31,2,1,160,342,1,1,0,0,0,0,0,2,838,0,3,841,0
306,1,167,22,0,2,161,323,0,1,0,0,1,0,1,0,679,0,2,681,0
307,1,204,16,1,2,149,274,1,0,0,0,1,2,1,1,653,0,2,655,0
308,2,154,19,0,5,165,309,0,2,0,0,0,0,0,0,656,0,1,657,0
309,3,176,31,0,5,161,266,0,0,0,0,1,0,1,0,644,0,3,647,0
310,5,230,36,2,8,163,415,2,0,1,0,0,0,1,1,864,0,2,866,0
311,9,334,24,0,1,192,218,1,2,0,0,1,0,0,0,782,0,1,783,0
312,4,323,19,1,6,205,319,2,0,0,0,1,1,2,1,884,0,3,887,0
