Polling Station No,E.KRITHIKA,S.SUDHARSANAM,MADHAVARAM V.MOORTHY,N.JANAKIRAMAN,R.KARTHIKEYAN,I.RAFFIK,M.L.VIJAYPRABHU,S.SIVAKUMAR,SUDARSANAM,A.NAGARAJAN,R.S.BALAJI,G.PRABU,A.PONNALAGAN,C.MOORTHY,V.MURTHY,Total Valid Votes,Rejected Votes,NOTA,Total,Tendered Votes
1,7,152,165,0,0,1,255,0,0,0,0,0,0,0,1,581,0,1,582,0
2,26,139,145,1,0,1,246,0,1,0,0,0,0,1,0,560,0,0,560,0
3,17,153,271,1,1,5,282,0,0,1,0,0,0,0,0,731,0,1,732,0
4,20,217,221,1,1,0,161,0,0,2,0,0,0,0,0,623,0,0,623,0
5,22,147,119,1,1,1,279,0,1,0,0,0,0,0,0,571,0,1,572,0
6,18,179,102,1,0,3,344,1,0,0,0,0,0,0,1,649,0,1,650,0
7,14,201,132,1,0,3,416,1,1,1,0,1,0,0,1,772,0,1,773,0
8,11,149,169,0,0,0,370,2,1,0,0,0,2,0,1,705,0,2,707,0
9,15,160,82,1,0,1,323,0,1,0,0,0,1,0,1,585,0,2,587,0
10,37,154,99,1,1,1,324,1,0,1,0,1,0,0,0,620,0,0,620,0
11,23,213,93,0,1,3,371,0,0,0,0,0,0,1,0,705,0,3,708,0
12,38,167,110,1,1,3,465,0,1,0,0,0,0,0,2,788,0,5,793,0
13,32,193,111,0,0,1,448,0,0,1,0,0,0,0,0,786,0,0,786,0
14,28,170,125,2,0,3,452,0,0,0,0,1,0,0,0,781,0,2,783,0
15,22,164,86,2,1,2,237,0,0,1,1,0,0,0,2,518,0,1,519,0
16,52,186,118,1,4,0,427,0,0,1,0,0,0,0,0,789,0,1,790,0
17,32,185,164,3,1,0,402,0,0,0,0,0,0,1,0,788,0,7,795,0
18,26,150,90,0,1,4,320,0,0,0,0,0,0,0,0,591,0,3,594,0
19,29,119,83,0,5,1,342,0,1,0,1,0,1,1,0,583,0,5,588,0
20,25,87,91,1,0,0,289,0,0,2,0,0,0,0,1,496,0,3,499,0
21,19,114,111,0,1,2,380,0,0,0,0,0,0,0,0,627,0,4,631,0
22,31,186,79,1,1,2,349,0,0,0,0,0,1,0,0,650,0,4,654,0
23,34,139,115,0,0,3,445,0,0,0,0,0,0,0,0,736,0,4,740,0
24,44,191,94,0,3,1,478,0,0,0,0,2,1,0,0,814,0,0,814,0
25,27,185,160,1,2,4,434,0,0,1,0,1,0,0,1,816,0,2,818,0
26,25,156,132,2,0,0,363,0,0,1,0,0,0,0,0,679,0,3,682,0
27,22,119,108,0,1,1,264,0,1,0,0,0,0,0,0,516,0,2,518,0
28,33,112,110,1,7,1,298,0,0,1,0,0,0,0,0,563,0,3,566,0
29,20,119,71,0,0,0,212,0,0,0,0,0,0,0,1,423,0,5,428,0
30,18,135,59,0,0,0,197,0,0,0,0,0,0,0,0,409,0,1,410,0
31,24,203,106,2,0,1,370,0,1,0,0,0,0,0,1,708,0,5,713,0
32,34,246,113,1,1,2,441,0,1,0,0,0,0,1,0,840,0,4,844,0
33,27,231,92,1,0,0,305,0,0,0,0,0,0,0,0,656,0,3,659,0
34,34,226,150,1,2,1,337,5,0,0,0,0,0,0,0,756,0,4,760,0
35,19,162,123,0,1,1,325,0,0,1,0,0,0,0,0,632,0,0,632,0
36,14,158,105,0,1,2,263,1,0,0,0,0,0,0,0,544,0,2,546,0
37,31,250,150,0,3,2,393,0,0,0,0,1,1,0,0,831,0,3,834,0
38,22,273,168,0,0,1,368,0,1,0,0,1,0,0,0,834,0,1,835,0
39,28,177,218,1,0,0,365,0,0,1,0,0,0,0,1,791,0,4,795,0
40,22,233,195,0,1,2,399,0,0,1,0,0,0,1,0,854,0,0,854,0
41,16,199,237,3,1,2,325,1,0,1,2,0,0,1,0,788,0,2,790,0
42,26,263,301,1,1,1,395,0,2,1,0,0,0,3,0,994,0,6,1000,0
43,46,222,187,1,0,0,349,0,1,0,0,0,0,0,0,806,0,4,810,0
44,36,310,157,0,0,0,375,2,0,0,2,0,0,0,0,882,0,4,886,0
45,28,214,227,2,0,2,323,0,1,0,0,0,0,1,0,798,0,3,801,0
46,27,169,239,0,0,3,260,0,0,0,0,1,0,2,0,701,0,3,704,0
47,32,121,198,1,0,1,306,1,0,0,0,0,0,0,0,660,0,1,661,0
48,34,185,161,1,0,0,357,0,0,0,1,1,1,0,0,741,0,3,744,0
49,35,252,170,0,0,1,293,1,2,0,0,0,0,0,0,754,0,4,758,0
50,24,225,98,1,0,0,258,0,0,0,0,0,1,0,0,607,0,1,608,0
51,e 131,294,110,0,0,0,344,0,0,0,0,0,1,1,0,781,0,5,786,0
52,25,248,128,1,0,0,316,0,1,0,1,0,0,0,0,720,0,3,723,0
53,32,263,95,0,1,1,290,0,0,0,0,0,2,0,0,684,0,3,687,0
54,31,223,121,1,0,0,407,0,2,0,0,0,2,0,0,787,0,4,791,0
55,13,176,94,2,0,2,242,0,0,0,0,0,0,0,0,529,0,8,537,0
56,24,245,89,0,0,1,336,0,0,0,0,0,0,1,0,696,0,3,699,0
57,45,227,182,1,1,2,407,1,0,1,0,1,1,0,0,869,0,9,878,0
58,16,152,257,0,2,1,386,0,0,1,0,0,0,0,1,816,0,3,819,0
59,28,177,164,1,1,1,299,0,0,0,0,0,0,0,0,671,0,5,676,0
60,16,162,130,0,0,2,246,0,0,1,0,0,0,0,0,557,0,1,558,0
61,19,173,157,0,1,2,297,0,0,0,0,1,0,0,0,650,0,4,654,0
62,23,204,245,0,1,0,342,0,0,1,1,1,2,0,0,820,0,4,824,0
63,31,262,136,1,1,1,342,0,0,0,0,1,0,0,0,775,0,5,780,0
64,26,292,161,1,0,3,386,0,0,1,0,0,1,0,0,871,0,3,874,0
65,30,177,191,1,1,3,337,0,1,0,0,0,2,1,1,745,0,4,749,0
66,12,167,72,0,1,1,168,0,0,0,0,0,0,0,0,421,0,1,422,0
67,12,229,133,0,0,1,316,1,0,0,0,0,0,1,0,693,0,2,695,0
68,33,238,100,2,0,3,532,0,1,0,0,0,0,0,0,909,0,5,914,0
69,18,329,108,0,0,1,413,0,0,0,0,1,0,0,0,870,0,2,872,0
70,14,176,74,2,0,2,229,0,0,1,0,1,0,0,1,500,0,3,503,0
71,14,137,53,0,1,2,251,1,1,0,0,0,0,0,0,460,0,0,460,0
72,15,265,198,1,0,3,383,0,1,0,0,0,0,0,0,866,0,1,867,0
73,13,180,104,0,0,1,363,0,1,1,0,1,0,0,1,665,0,3,668,0
74,7,249,116,0,0,2,343,0,0,0,0,0,0,0,0,717,0,2,719,0
75,19,220,88,3,2,1,413,0,0,0,0,1,0,0,0,747,0,2,749,0
76,19,250,133,2,0,2,320,0,0,0,0,0,1,0,1,728,0,3,731,0
77,23,258,122,1,0,1,345,0,0,1,0,0,0,0,0,751,0,3,754,0
78,21,305,64,7,0,4,360,0,1,0,0,0,0,0,1,763,0,2,765,0
79,16,375,81,0,0,1,332,0,0,2,2,0,0,0,0,809,0,3,812,0
80,5,177,59,3,0,1,283,0,0,0,0,1,0,0,1,530,0,5,535,0
81,27,196,96,0,0,0,295,0,2,0,0,0,1,0,0,617,0,2,619,0
82,24,198,118,2,1,1,471,0,1,0,0,1,0,0,1,818,0,0,818,0
83,33,215,62,4,0,0,395,0,1,0,0,0,0,0,0,710,0,7,717,0
84,16,227,106,0,0,1,441,0,0,2,0,0,0,0,0,793,0,2,795,0
85,33,233,209,0,1,1,383,0,1,0,0,0,0,0,1,862,0,2,864,0
86,38,241,182,2,0,2,428,0,0,0,0,0,1,0,0,894,0,6,900,0
87,25,192,127,1,0,1,452,1,1,0,1,0,2,0,0,803,0,0,803,0
88,38,179,166,0,0,4,448,1,0,0,0,0,0,1,0,837,0,8,845,0
89,33,188,152,0,0,0,393,0,0,0,0,1,0,0,0,767,0,3,770,0
90,13,265,69,1,0,1,426,1,1,0,0,0,0,0,0,777,0,3,780,0
91,25,323,62,0,0,4,358,0,0,0,0,1,0,0,0,773,0,3,776,0
92,15,222,97,0,0,0,311,0,0,0,0,0,0,0,0,645,0,1,646,0
93,21,253,90,0,0,3,449,0,0,0,0,0,0,0,2,818,0,9,827,0
94,19,218,93,1,0,2,352,0,0,0,0,0,1,0,1,687,0,3,690,0
95,23,237,95,0,0,0,312,0,0,0,0,0,0,0,0,667,0,3,670,0
96,29,200,58,0,1,0,349,0,1,0,0,0,0,2,0,640,0,9,649,0
97,23,267,106,1,0,3,376,0,1,0,0,0,0,0,0,777,0,7,784,0
98,26,257,106,0,0,1,401,0,0,0,0,0,0,0,0,791,0,5,796,0
99,21,276,74,1,0,0,331,1,1,0,0,1,0,0,0,706,0,6,712,0
100,28,172,112,1,0,2,353,1,0,0,0,0,0,1,1,671,0,3,674,0
101,38,195,155,0,0,1,418,0,1,0,0,0,1,1,0,810,0,4,814,0
102,e 238,170,113,0,0,0,391,3,0,0,0,1,0,0,2,718,0,3,721,0
103,16,203,111,0,0,1,376,0,1,2,0,0,0,0,0,710,0,6,716,0
104,15,105,79,2,0,0,162,1,0,0,0,0,0,0,0,364,0,3,367,0
105,32,203,100,1,1,0,419,0,1,1,0,0,0,0,1,759,0,5,764,0
106,27,267,131,1,0,1,314,0,1,0,0,0,0,0,0,742,0,4,746,0
107,12,131,67,0,0,1,143,0,0,0,0,0,0,0,0,354,0,1,355,0
108,9,122,37,1,0,0,152,0,0,0,0,0,0,0,0,321,0,2,323,0
109,25,140,83,0,0,1,291,0,0,1,2,1,0,0,0,544,0,2,546,0
110,10,127,78,1,0,0,255,0,0,0,0,0,0,0,0,471,0,2,473,0
111,35,214,144,1,0,1,413,2,0,0,2,0,0,1,1,814,0,7,821,0
112,41,267,137,1,1,0,455,0,0,0,0,1,0,0,0,903,0,8,911,0
113,22,177,138,1,0,1,364,1,0,0,0,0,0,0,0,704,0,0,704,0
114,30,210,162,0,0,2,496,2,0,0,0,0,0,0,0,902,0,3,905,0
115,22,143,105,0,0,0,409,0,0,0,0,0,1,0,0,680,0,3,683,0
116,16,143,77,1,1,1,344,1,0,0,0,0,1,0,0,585,0,1,586,0
117,16,130,67,2,0,3,241,1,0,0,0,1,0,0,0,461,0,2,463,0
118,26,113,65,0,0,0,212,1,0,0,0,0,0,1,0,418,0,8,426,0
119,33,189,108,0,0,3,386,0,0,0,0,2,0,0,0,721,0,3,724,0
120,35,179,117,0,0,3,471,1,0,1,1,0,0,0,0,808,0,3,811,0
121,25,175,112,0,0,2,349,1,0,0,1,0,0,0,0,665,0,3,668,0
122,17,199,133,0,0,1,314,0,1,0,0,0,0,0,0,665,0,4,669,0
123,18,106,177,1,1,2,384,0,0,0,0,0,0,1,0,690,0,5,695,0
124,33,150,113,0,1,0,294,0,0,0,0,0,0,0,0,591,0,2,593,0
125,25,162,142,0,0,0,343,0,0,0,0,1,0,0,0,673,0,1,674,0
126,52,221,92,0,1,1,325,0,0,0,0,0,0,0,2,694,0,5,699,0
127,20,189,56,0,1,1,215,0,0,0,0,0,1,0,0,483,0,2,485,0
128,18,199,107,0,0,1,263,0,3,1,0,0,0,0,0,592,0,1,593,0
129,19,143,89,0,0,0,250,0,0,0,0,0,0,0,0,501,0,5,506,0
130,30,149,125,0,1,1,301,1,1,0,0,1,1,0,1,612,0,4,616,0
131,40,193,187,1,0,2,475,0,1,1,0,1,0,1,0,902,0,4,906,0
132,21,118,97,0,0,1,327,1,0,0,1,0,0,0,0,566,0,4,570,0
133,14,155,50,0,0,2,250,0,0,2,0,1,0,0,3,477,0,3,480,0
134,14,141,117,1,0,0,280,1,0,0,0,1,1,0,0,556,0,1,557,0
135,25,171,180,0,1,0,434,1,0,0,1,0,1,0,0,814,0,4,818,0
136,16,85,119,0,0,1,292,1,0,0,1,0,0,1,0,516,0,1,517,0
137,14,91,110,1,1,3,192,0,0,0,0,0,0,0,0,412,0,1,413,0
138,39,184,185,1,1,3,545,0,2,0,0,0,0,0,0,960,0,3,963,0
139,23,135,279,3,1,2,519,1,1,1,0,3,0,1,0,969,0,2,971,0
140,27,157,151,0,0,0,413,1,0,0,0,2,0,0,0,751,0,4,755,0
141,36,205,97,0,0,1,335,1,0,0,0,0,1,0,0,676,0,3,679,0
142,24,233,140,0,0,0,333,0,1,0,0,0,0,1,0,732,0,6,738,0
143,22,203,132,3,0,0,327,1,0,0,0,1,0,0,0,689,0,7,696,0
144,13,118,78,1,0,0,241,0,0,0,0,0,0,0,0,451,0,3,454,0
145,27,179,73,0,0,1,278,2,0,0,1,0,0,0,0,561,0,2,563,0
146,14,301,90,1,1,5,352,0,0,1,0,0,1,1,0,767,0,2,769,0
147,17,268,115,0,0,3,421,0,0,0,1,0,0,0,0,825,0,4,829,0
148,20,204,98,2,0,5,260,1,1,0,0,0,0,0,0,591,0,0,591,0
149,26,182,124,1,0,2,529,0,0,0,0,0,0,0,0,864,0,2,866,0
150,15,213,91,0,0,3,330,0,0,1,0,0,1,0,1,655,0,1,656,0
151,16,125,139,0,1,1,416,0,0,1,0,0,0,1,1,701,0,1,702,0
152,20,222,82,1,0,2,360,1,0,0,1,1,0,1,0,691,0,17,708,0
153,e 312,230,107,1,0,2,498,0,0,0,0,1,0,0,0,851,0,3,854,0
154,18,212,77,0,2,2,378,1,2,0,0,0,0,0,1,693,0,2,695,0
155,37,350,130,3,2,4,456,0,0,0,0,0,0,0,1,983,0,4,987,0
156,33,372,91,2,0,0,495,0,0,0,0,1,0,0,1,995,0,1,996,0
157,20,202,87,1,0,0,397,0,1,0,0,1,0,0,0,709,0,0,709,0
158,29,268,108,1,1,3,453,0,0,0,0,0,0,0,0,863,0,1,864,0
159,16,268,88,2,0,1,388,0,0,0,0,0,1,1,0,765,0,4,769,0
160,29,198,17,1,0,4,310,0,1,1,0,0,1,0,3,565,0,4,569,0
161,25,253,81,3,0,1,380,0,2,2,1,0,0,0,2,750,0,3,753,0
162,28,316,134,1,0,1,405,0,0,0,0,0,0,0,0,885,0,1,886,0
163,4,213,114,2,2,0,468,0,1,1,0,0,0,0,0,805,0,0,805,0
164,24,126,75,0,0,1,407,0,0,1,0,2,1,0,1,638,0,1,639,0
165,13,145,153,2,0,0,236,1,0,0,0,0,0,0,0,550,0,3,553,0
166,25,260,119,0,0,0,299,0,0,0,0,0,0,0,1,704,0,1,705,0
167,21,143,96,1,1,1,411,0,0,1,0,0,1,1,1,678,0,3,681,0
168,3,185,64,2,0,0,263,1,0,0,0,0,0,0,0,518,0,2,520,0
169,17,140,70,0,1,0,266,0,0,1,0,1,0,0,0,496,0,2,498,0
170,33,189,69,1,0,2,410,1,0,0,0,0,0,0,0,705,0,2,707,0
171,11,131,115,1,3,1,330,2,1,0,0,0,0,0,0,595,0,0,595,0
172,10,174,69,2,1,0,282,0,0,0,0,0,0,0,0,538,0,6,544,0
173,27,185,141,0,1,0,396,0,0,0,2,0,0,0,1,753,0,5,758,0
174,23,302,99,7,0,1,409,0,0,1,0,1,0,0,2,845,0,2,847,0
175,11,238,107,29,12,3,344,0,0,0,0,0,1,3,1,749,0,0,749,0
176,12,268,105,6,1,0,379,0,0,0,0,0,1,0,0,772,0,3,775,0
177,14,238,176,2,0,2,408,0,0,1,0,0,0,0,0,841,0,5,846,0
178,37,218,116,0,0,2,533,0,1,1,1,0,1,1,0,911,0,5,916,0
179,30,162,93,1,0,2,410,0,0,0,0,0,1,0,2,701,0,1,702,0
180,13,125,121,0,0,2,313,0,0,0,0,0,1,0,2,577,0,2,579,0
181,23,128,72,2,0,1,294,0,1,2,0,0,0,0,0,523,0,1,524,0
182,21,103,87,0,1,1,296,2,1,0,0,0,0,0,0,512,0,1,513,0
183,28,246,164,2,0,1,332,1,1,0,0,0,1,0,0,776,0,3,779,0
184,32,332,159,2,0,2,415,0,0,1,1,0,0,2,0,946,0,3,949,0
185,10,182,100,0,0,0,237,1,0,0,0,0,0,0,0,530,0,0,530,0
186,25,251,106,1,1,2,446,0,0,0,0,0,0,0,0,832,0,1,833,0
187,16,223,129,0,1,0,411,0,1,0,0,0,1,0,1,783,0,2,785,0
188,29,209,105,0,0,2,381,0,0,0,0,0,0,1,1,728,0,1,729,0
189,22,174,98,1,0,0,391,0,0,0,0,0,0,0,0,686,0,4,690,0
190,39,221,99,0,0,3,396,0,0,0,0,0,0,0,1,759,0,3,762,0
191,22,280,130,2,0,1,392,1,0,0,0,0,0,0,0,828,0,2,830,0
192,25,172,88,2,0,1,423,1,0,0,1,0,0,0,0,713,0,1,714,0
193,17,122,40,1,0,0,317,0,0,0,0,0,0,0,0,497,0,0,497,0
194,24,156,86,1,0,2,337,0,1,1,0,3,0,0,0,611,0,1,612,0
195,34,187,98,1,1,2,370,1,0,0,0,0,0,0,0,694,0,1,695,0
196,35,177,105,0,0,1,489,0,1,0,0,0,0,0,0,808,0,2,810,0
197,34,185,126,1,0,0,413,0,0,1,0,0,0,0,0,760,0,4,764,0
198,22,148,100,2,0,1,316,0,0,0,0,0,0,0,0,589,0,1,590,0
199,32,222,91,0,0,2,456,0,0,0,1,0,0,0,0,804,0,6,810,0
200,32,203,111,0,0,0,387,1,0,0,1,0,2,0,1,738,0,2,740,0
201,34,195,87,1,1,0,303,0,0,0,0,1,0,0,0,622,0,5,627,0
202,26,122,96,0,0,2,279,0,0,0,0,0,0,0,0,525,0,1,526,0
203,28,182,88,1,2,1,392,0,0,0,0,0,0,0,0,694,0,0,694,0
204,e 423,180,107,0,0,0,315,0,0,0,1,0,0,0,0,626,0,3,629,0
205,20,198,116,0,0,0,376,1,0,0,0,0,0,0,0,711,0,4,715,0
206,23,201,117,1,1,1,508,0,0,1,0,0,1,0,0,854,0,4,858,0
207,21,233,94,0,0,6,374,0,0,0,0,0,0,0,0,728,0,1,729,0
208,30,200,86,1,0,0,294,0,1,0,0,0,0,1,0,613,0,4,617,0
209,15,115,72,0,0,0,191,0,0,1,0,0,0,0,0,394,0,6,400,0
210,49,200,172,5,0,3,447,2,0,0,1,3,1,3,0,886,0,3,889,0
211,38,182,147,0,0,1,488,0,0,0,1,0,0,0,0,857,0,2,859,0
212,14,118,179,1,1,1,248,1,0,1,0,1,0,1,0,566,0,2,568,0
213,18,108,176,1,0,2,209,0,0,0,0,0,0,1,0,515,0,2,517,0
214,30,186,101,0,1,4,402,0,0,0,0,1,0,1,0,726,0,1,727,0
215,50,156,138,0,1,4,547,1,0,0,0,0,0,0,2,899,0,4,903,0
216,30,163,147,0,0,0,294,1,0,0,1,0,0,0,0,636,0,1,637,0
217,21,125,105,0,1,1,234,0,0,0,0,0,1,0,0,488,0,4,492,0
218,22,113,97,4,0,0,252,0,0,1,0,1,1,0,0,491,0,3,494,0
219,27,154,104,0,0,1,239,0,0,0,0,0,0,0,1,526,0,2,528,0
220,24,178,234,1,0,0,424,0,0,1,0,0,1,0,0,863,0,3,866,0
221,30,176,143,2,1,2,491,0,0,0,0,1,1,1,0,848,0,1,849,0
222,31,160,194,0,0,0,438,1,0,1,0,0,0,2,0,827,0,6,833,0
223,29,155,129,0,0,0,403,1,0,0,0,0,0,1,1,719,0,2,721,0
224,34,138,92,0,0,3,389,0,0,0,0,0,0,0,0,656,0,2,658,0
225,44,140,98,2,0,1,307,0,1,1,0,0,0,0,1,595,0,4,599,0
226,18,82,116,0,0,1,292,0,0,0,1,1,2,1,0,514,0,4,518,0
227,16,99,72,0,0,0,253,0,0,0,0,0,0,1,1,442,0,2,444,0
228,47,179,98,0,0,1,478,2,0,0,1,1,0,0,0,807,0,6,813,0
229,32,163,90,0,1,2,362,0,0,0,0,1,1,0,0,652,0,1,653,0
230,19,175,115,0,0,1,569,0,0,1,0,1,2,0,0,883,0,9,892,0
231,29,190,128,0,1,0,451,0,1,0,0,0,0,0,0,800,0,2,802,0
232,32,157,70,0,0,1,392,1,0,0,1,0,0,0,1,655,0,0,655,0
233,49,308,169,0,1,1,505,2,1,1,0,1,0,0,0,1038,0,6,1044,0
234,34,286,104,1,0,2,586,0,0,1,0,2,0,1,0,1017,0,6,1023,0
235,19,252,153,2,1,3,456,1,1,0,0,1,0,0,0,889,0,5,894,0
236,31,217,126,0,0,0,452,0,0,0,0,0,0,1,0,827,0,4,831,0
237,44,263,116,1,0,0,515,0,1,0,2,0,0,0,0,942,0,9,951,0
238,38,254,98,0,0,0,442,0,0,0,0,0,0,0,1,833,0,3,836,0
239,43,216,139,0,0,0,461,1,0,0,0,1,1,0,1,863,0,1,864,0
240,38,224,110,0,0,2,509,0,0,1,0,2,0,0,0,886,0,0,886,0
241,40,218,117,1,0,0,463,0,0,0,0,0,0,0,1,840,0,5,845,0
242,43,269,152,0,0,0,518,0,0,0,0,0,0,1,0,983,0,2,985,0
243,40,193,146,1,0,5,528,2,0,2,0,2,0,0,0,919,0,4,923,0
244,42,209,129,1,0,0,443,1,0,0,1,0,0,1,0,827,0,3,830,0
245,26,187,92,3,1,3,352,0,1,1,0,0,0,0,1,667,0,3,670,0
246,17,124,102,0,0,0,300,0,0,0,0,0,0,0,0,543,0,1,544,0
247,21,234,129,1,0,0,351,1,1,0,0,1,0,1,0,740,0,4,744,0
248,22,129,88,0,1,1,247,0,1,0,0,2,0,1,0,492,0,3,495,0
249,20,135,124,1,0,0,317,0,1,0,0,1,0,0,0,599,0,10,609,0
250,36,177,115,0,0,1,499,0,0,1,0,2,0,0,0,831,0,3,834,0
251,34,257,142,0,0,0,409,0,0,0,0,0,0,0,0,842,0,5,847,0
252,33,211,96,0,1,1,416,0,0,1,2,0,1,0,0,762,0,5,767,0
253,27,204,91,0,0,0,375,0,0,0,1,0,0,0,1,699,0,3,702,0
254,30,198,125,1,0,1,480,0,0,0,0,0,0,0,0,835,0,6,841,0
255,e 528,192,116,0,0,0,486,0,0,0,0,0,1,1,0,824,0,4,828,0
256,37,187,140,2,0,0,385,1,1,0,0,0,0,0,0,753,0,4,757,0
257,33,228,133,0,0,0,506,0,0,0,0,0,1,1,0,902,0,3,905,0
258,24,165,138,1,2,0,532,1,0,0,1,1,0,0,0,865,0,3,868,0
259,42,196,100,1,0,3,380,1,0,0,0,0,0,0,0,723,0,3,726,0
260,48,215,109,0,0,0,464,3,0,0,1,2,0,0,0,842,0,3,845,0
261,23,274,98,1,1,3,477,1,0,0,0,0,0,0,0,878,0,1,879,0
262,29,210,107,1,1,1,464,1,1,0,0,0,0,0,2,817,0,4,821,0
263,18,268,55,0,1,1,445,0,0,0,0,1,0,0,0,789,0,1,790,0
264,18,183,102,3,0,1,400,1,0,0,0,0,0,0,0,708,0,1,709,0
265,19,219,90,2,1,0,420,1,1,0,0,2,0,0,0,755,0,3,758,0
266,18,345,33,0,0,1,307,0,0,0,0,1,0,0,0,705,0,4,709,0
267,20,231,95,0,0,0,408,1,0,0,0,0,0,0,0,755,0,5,760,0
268,23,244,119,3,0,0,449,1,0,0,0,0,0,0,1,840,0,1,841,0
269,35,201,171,2,1,2,447,0,0,1,0,1,0,0,1,862,0,1,863,0
270,34,195,116,0,0,0,422,0,0,0,0,0,0,0,0,767,0,3,770,0
271,29,185,108,1,0,1,465,0,0,0,0,1,0,2,0,792,0,7,799,0
272,25,156,109,0,0,1,402,0,0,2,0,1,0,0,0,696,0,9,705,0
273,28,214,118,1,0,0,494,2,0,0,0,0,0,0,0,857,0,7,864,0
274,45,197,122,3,0,1,527,2,0,0,2,0,0,0,0,899,0,5,904,0
275,21,192,131,2,0,0,411,0,1,0,0,0,0,0,1,759,0,5,764,0
276,15,161,145,1,0,5,451,1,0,1,0,0,0,1,1,782,0,1,783,0
277,25,115,100,1,0,1,422,0,0,0,1,0,3,0,1,669,0,2,671,0
278,44,173,104,1,0,2,412,0,0,0,0,0,1,0,0,737,0,4,741,0
279,55,212,90,1,0,1,445,0,0,1,0,0,0,0,2,807,0,4,811,0
280,26,246,111,1,0,1,438,0,0,0,0,0,0,1,0,824,0,5,829,0
281,24,142,85,0,0,0,387,0,0,0,0,0,0,0,0,638,0,2,640,0
282,15,137,125,0,2,0,238,0,0,0,0,0,0,0,1,518,0,4,522,0
283,26,199,120,1,0,2,522,0,0,0,1,1,0,0,0,872,0,8,880,0
284,27,222,115,2,0,2,396,0,0,0,0,0,0,2,1,767,0,5,772,0
285,21,272,88,0,0,0,311,0,1,0,1,0,0,0,0,694,0,8,702,0
286,24,234,127,1,1,1,458,1,1,2,1,4,0,0,1,856,0,0,856,0
287,25,230,127,2,0,1,380,1,0,0,0,0,1,0,0,767,0,2,769,0
288,15,181,100,1,0,2,304,0,0,0,0,0,0,0,0,603,0,0,603,0
289,22,178,132,2,0,1,389,1,0,0,0,2,0,0,0,727,0,0,727,0
290,20,225,91,3,0,0,399,0,0,0,1,1,0,1,1,742,0,0,742,0
291,21,282,69,2,0,0,437,0,0,0,0,1,0,0,0,812,0,2,814,0
292,18,228,80,6,1,2,377,0,1,0,0,2,0,0,0,715,0,2,717,0
293,10,203,64,9,0,5,256,0,1,0,0,0,0,0,0,548,0,2,550,0
294,12,210,90,1,2,1,382,0,1,0,0,1,1,1,0,702,0,3,705,0
295,15,265,86,1,0,1,448,0,1,0,0,0,0,0,1,818,0,4,822,0
296,14,256,94,1,0,3,419,0,0,0,0,1,0,2,2,792,0,2,794,0
297,13,114,86,0,0,0,239,1,0,0,0,0,0,0,1,454,0,3,457,0
298,14,273,69,0,1,2,260,0,0,0,0,0,0,0,0,619,0,0,619,0
299,22,162,73,2,0,0,342,0,0,0,0,0,0,0,0,601,0,2,603,0
300,30,215,92,0,0,0,303,0,0,0,0,0,0,0,0,640,0,2,642,0
301,24,218,107,1,0,0,338,0,0,0,0,1,0,2,0,691,0,1,692,0
302,18,132,87,1,0,2,286,2,0,0,0,0,0,0,3,531,0,2,533,0
303,9,175,85,2,1,8,260,1,0,0,0,0,1,1,0,543,0,1,544,0
304,22,212,104,1,1,3,327,0,0,1,1,0,1,1,1,675,0,3,678,0
305,23,163,101,2,1,0,342,1,0,0,0,1,0,0,0,634,0,1,635,0
306,e 65,65,64,0,0,0,121,0,0,0,1,0,0,0,0,256,0,2,258,0
307,11,234,55,0,0,1,283,1,0,0,0,0,1,0,0,586,0,0,586,0
308,16,182,128,0,1,1,191,0,0,0,0,0,0,1,0,520,0,6,526,0
309,15,99,91,1,0,0,207,1,0,0,1,0,0,0,0,415,0,2,417,0
310,12,207,85,0,2,1,197,0,0,0,0,0,0,0,0,504,0,1,505,0
311,8,196,89,0,3,5,208,1,0,0,0,0,0,0,0,510,0,2,512,0
312,3,172,27,0,1,0,165,0,0,0,0,0,0,0,0,368,0,2,370,0
313,13,285,68,1,0,2,305,0,0,0,0,0,0,1,0,675,0,1,676,0
314,5,123,11,3,0,0,131,0,0,0,0,0,1,0,0,274,0,3,277,0
315,30,230,71,0,2,1,388,0,0,0,1,0,0,0,0,723,0,1,724,0
316,11,101,63,0,1,5,273,0,0,0,0,0,0,0,0,454,0,2,456,0
317,13,261,36,1,0,3,328,0,0,1,0,0,0,0,0,643,0,1,644,0
318,11,119,30,2,1,2,348,1,0,0,0,0,0,0,0,514,0,2,516,0
319,9,145,53,2,1,3,241,0,0,0,0,0,0,0,2,456,0,2,458,0
320,12,120,181,4,1,2,247,1,0,0,0,0,0,0,0,568,0,4,572,0
321,11,135,78,1,0,0,158,0,0,0,0,2,0,0,1,386,0,2,388,0
322,13,190,94,1,0,4,293,1,0,0,0,0,0,0,0,596,0,0,596,0
323,15,151,109,2,0,2,343,1,0,0,0,1,1,1,0,626,0,2,628,0
324,20,156,144,1,0,0,261,1,0,0,0,3,0,0,0,586,0,1,587,0
325,29,233,319,1,0,3,412,1,2,2,4,0,2,0,0,1008,0,4,1012,0
326,24,220,386,2,0,3,408,0,0,0,0,0,0,1,1,1045,0,10,1055,0
327,12,165,421,1,0,1,257,0,4,0,0,1,0,4,2,868,0,4,872,0
328,24,234,113,3,0,0,522,2,0,1,0,0,0,0,0,899,0,5,904,0
329,18,226,141,3,0,0,437,0,0,0,1,2,0,0,2,830,0,1,831,0
330,1,82,73,0,0,0,110,0,0,1,0,0,0,0,1,268,0,2,270,0
331,9,97,100,0,1,3,237,1,0,0,0,0,0,0,0,448,0,0,448,0
332,17,242,147,0,0,3,263,0,0,0,0,0,0,0,1,673,0,1,674,0
333,13,130,122,0,0,2,235,1,0,1,0,0,0,2,1,507,0,2,509,0
334,20,197,211,4,0,4,440,3,1,0,0,0,0,0,0,880,0,2,882,0
335,19,205,276,1,1,1,504,1,0,2,0,0,0,1,0,1011,0,2,1013,0
336,17,296,254,2,1,2,387,0,1,0,1,1,0,2,0,964,0,2,966,0
337,35,145,120,1,0,2,373,0,1,0,0,0,0,0,0,677,0,3,680,0
338,11,132,96,0,1,2,229,0,0,0,0,0,1,0,0,472,0,1,473,0
339,13,236,102,2,1,4,251,0,0,0,0,0,0,1,0,610,0,0,610,0
340,12,235,93,2,0,1,339,1,0,0,0,1,0,0,0,684,0,1,685,0
341,6,171,236,0,0,1,229,0,1,1,0,0,0,1,0,646,0,1,647,0
342,14,89,107,0,0,0,198,0,1,0,0,0,0,0,0,409,0,0,409,0
343,24,185,202,0,0,2,425,1,2,1,0,1,2,2,1,848,0,2,850,0
344,28,154,109,3,0,2,437,1,0,0,0,1,0,2,0,737,0,0,737,0
345,37,231,77,2,0,0,453,0,1,0,0,0,0,0,0,801,0,6,807,0
346,27,119,63,2,0,1,346,0,0,2,0,1,1,0,0,562,0,3,565,0
347,34,146,77,1,0,2,372,0,0,0,1,1,1,1,2,638,0,3,641,0
348,33,153,87,0,1,2,316,0,0,0,0,2,1,0,0,595,0,3,598,0
349,26,128,117,1,0,2,353,0,0,0,1,0,0,1,0,629,0,0,629,0
350,26,105,61,3,0,1,424,0,0,1,0,0,0,0,1,622,0,2,624,0
351,15,46,62,2,0,0,306,1,0,0,0,0,0,0,0,432,0,1,433,0
352,30,102,63,2,0,0,577,0,0,0,0,0,0,1,0,775,0,1,776,0
353,14,61,45,2,0,3,360,0,0,0,0,0,0,0,0,485,0,1,486,0
354,20,156,58,2,0,2,340,0,0,0,0,1,1,0,1,581,0,4,585,0
355,11,139,79,1,0,0,345,2,0,0,0,0,0,1,0,578,0,1,579,0
356,9,76,109,0,0,1,207,0,0,0,0,0,0,0,0,402,0,2,404,0
357,e 721,141,126,1,0,1,321,0,1,0,0,0,1,0,0,613,0,3,616,0
358,22,141,209,2,0,3,458,1,0,0,0,0,0,1,1,838,0,4,842,0
359,23,202,119,1,1,3,396,0,0,1,0,0,0,0,0,746,0,5,751,0
360,37,215,83,1,0,2,494,0,2,1,0,0,0,1,1,837,0,2,839,0
361,25,109,59,1,0,0,287,0,0,0,0,0,0,0,0,481,0,1,482,0
362,23,129,77,0,0,0,295,0,0,1,0,0,0,0,0,525,0,3,528,0
363,22,117,46,1,1,0,242,0,0,0,0,0,0,0,0,429,0,2,431,0
364,39,177,92,1,1,1,499,0,0,2,0,0,0,1,0,813,0,3,816,0
365,56,196,140,1,0,2,519,1,0,0,1,0,0,0,0,916,0,2,918,0
366,27,251,95,0,1,1,355,1,0,0,0,0,0,0,0,731,0,2,733,0
367,18,164,98,0,0,2,371,1,0,1,0,0,0,0,1,656,0,1,657,0
368,21,184,131,2,0,0,409,0,1,0,0,0,0,0,1,749,0,3,752,0
369,22,240,74,1,0,2,409,0,1,0,0,1,0,0,0,750,0,1,751,0
370,29,189,98,0,0,1,432,0,0,2,0,0,0,0,1,752,0,3,755,0
371,10,62,43,0,0,0,141,0,0,0,0,0,0,0,0,256,0,2,258,0
372,53,200,105,1,2,1,455,1,0,0,0,0,0,0,0,818,0,2,820,0
373,62,213,107,1,0,0,465,0,0,0,0,1,0,0,0,849,0,3,852,0
374,43,165,149,1,0,0,406,1,0,0,0,0,0,0,0,765,0,2,767,0
375,60,194,111,1,0,1,492,0,0,1,1,0,0,1,0,862,0,5,867,0
376,26,105,117,0,0,2,323,1,1,1,0,1,0,0,1,578,0,4,582,0
377,24,158,177,0,0,1,516,0,0,0,1,3,0,0,0,880,0,2,882,0
378,26,117,161,0,0,0,332,1,0,0,1,3,0,1,0,642,0,1,643,0
379,15,71,97,0,0,1,171,1,0,0,0,0,0,0,0,356,0,0,356,0
380,45,137,160,1,0,2,452,0,0,0,0,2,0,0,0,799,0,3,802,0
381,42,190,111,0,0,0,407,0,1,1,0,1,1,0,0,754,0,4,758,0
382,33,135,134,1,0,2,483,2,0,3,1,2,2,2,2,802,0,3,805,0
383,37,185,195,0,0,1,471,0,1,0,1,0,0,1,1,893,0,1,894,0
384,36,125,103,0,1,0,354,0,1,0,1,1,0,1,0,623,0,1,624,0
385,22,58,148,1,0,1,319,0,1,0,1,0,0,0,2,553,0,0,553,0
386,41,128,97,0,0,1,436,0,0,1,0,1,0,1,0,706,0,0,706,0
387,8,39,33,1,0,0,94,0,0,0,0,0,0,0,0,175,0,2,177,0
388,22,201,221,1,0,0,429,0,1,0,0,0,0,1,2,878,0,2,880,0
389,31,282,102,2,1,0,488,0,0,0,0,1,0,0,0,907,0,5,912,0
390,20,151,162,0,1,0,399,0,0,1,1,1,0,0,0,736,0,1,737,0
391,43,187,135,0,1,1,512,0,0,0,1,0,0,0,0,880,0,3,883,0
392,19,173,73,1,0,1,376,0,0,0,0,0,0,0,0,643,0,2,645,0
393,13,109,90,1,0,0,308,0,0,1,0,0,0,0,0,522,0,1,523,0
394,16,325,131,1,1,1,394,0,0,0,0,0,0,0,1,870,0,2,872,0
395,19,107,244,0,0,0,419,0,0,1,0,0,0,3,0,793,0,0,793,0
396,22,181,248,2,1,2,429,1,2,1,0,1,1,0,4,895,0,2,897,0
397,3,95,156,2,1,0,211,0,1,0,0,0,0,2,2,473,0,2,475,0
398,22,140,240,3,0,2,417,0,2,1,0,0,1,1,2,831,0,0,831,0
399,31,180,227,6,1,2,525,0,0,1,0,0,2,0,1,976,0,3,979,0
400,24,242,95,20,1,1,497,0,0,0,0,1,0,0,0,881,0,4,885,0
401,6,69,72,1,0,0,255,0,0,1,0,2,0,1,1,408,0,1,409,0
402,19,110,106,1,0,1,320,0,1,2,0,1,0,1,1,563,0,2,565,0
403,40,107,71,0,0,0,376,0,1,0,0,0,0,0,0,595,0,3,598,0
404,59,180,149,1,0,0,473,0,0,0,0,0,0,0,1,863,0,3,866,0
405,1,34,17,0,0,0,123,0,0,0,0,1,0,0,0,176,0,0,176,0
406,39,213,87,5,1,1,548,2,4,1,0,0,1,0,0,902,0,6,908,0
407,39,198,225,1,0,1,478,2,1,1,0,2,0,2,1,951,0,1,952,0
408,e 819,252,201,2,1,1,321,0,1,0,0,1,0,3,3,805,0,1,806,0
409,13,179,106,1,0,2,495,0,2,1,1,0,0,0,1,801,0,0,801,0
410,30,123,82,4,1,2,540,0,0,1,0,1,0,1,0,785,0,5,790,0
411,16,226,120,0,1,3,594,1,0,1,0,0,0,0,3,965,0,1,966,0
412,9,131,81,2,0,0,257,0,0,0,0,0,0,0,0,480,0,2,482,0
413,29,249,257,1,2,3,455,1,0,2,1,0,0,1,1,1002,0,2,1004,0
414,13,97,82,0,0,1,309,0,0,0,0,0,0,0,0,502,0,0,502,0
415,7,96,110,1,0,2,204,1,0,0,0,0,1,0,0,422,0,6,428,0
416,29,169,156,0,0,1,299,0,0,0,0,1,0,0,0,655,0,4,659,0
417,20,130,108,1,0,1,374,0,0,0,0,0,0,1,0,635,0,2,637,0
418,19,198,100,4,0,3,339,0,0,0,0,0,0,0,3,666,0,0,666,0
419,26,153,167,2,0,3,399,0,0,0,0,0,1,1,0,752,0,1,753,0
420,19,220,203,5,0,2,414,0,1,0,1,0,0,0,0,865,0,2,867,0
421,19,120,89,2,1,0,356,0,0,1,1,1,2,0,2,594,0,1,595,0
422,17,162,89,1,0,1,293,1,0,0,0,0,1,0,2,567,0,0,567,0
423,14,271,137,6,0,3,312,1,2,1,0,1,0,1,1,750,0,3,753,0
424,25,92,160,2,0,1,418,1,0,0,1,2,0,1,0,703,0,3,706,0
425,25,245,118,1,0,4,522,1,3,2,0,2,1,0,2,926,0,2,928,0
426,9,163,87,2,0,0,213,0,0,1,0,0,0,2,1,478,0,0,478,0
427,16,205,108,1,1,1,484,1,0,0,1,0,1,2,0,821,0,0,821,0
428,19,109,71,0,0,1,333,0,1,0,0,0,0,0,1,535,0,2,537,0
429,14,101,90,1,0,1,242,0,0,0,0,0,0,0,1,450,0,0,450,0
430,8,146,59,0,0,1,252,0,0,0,0,1,1,0,0,468,0,1,469,0
431,16,108,72,1,0,0,215,0,0,0,0,0,0,0,0,412,0,2,414,0
432,13,98,56,2,0,2,270,1,0,1,0,0,0,0,0,443,0,2,445,0
433,13,150,50,0,0,2,279,1,0,1,0,0,0,0,0,496,0,2,498,0
434,16,182,99,1,0,0,376,1,0,0,0,2,0,1,0,678,0,5,683,0
435,13,133,74,0,0,3,331,0,0,0,0,0,0,0,0,554,0,0,554,0
436,26,139,141,1,1,0,329,0,0,0,1,1,0,0,0,639,0,4,643,0
437,26,145,150,1,0,5,513,0,1,1,0,0,0,2,1,845,0,2,847,0
438,25,190,114,1,0,1,436,0,0,0,0,0,0,0,1,768,0,1,769,0
439,9,175,108,1,1,1,343,0,0,0,0,0,1,0,0,639,0,3,642,0
440,11,237,185,3,0,0,269,1,0,1,0,1,0,0,1,709,0,4,713,0
441,24,110,75,0,1,1,245,1,0,0,1,0,0,0,1,459,0,0,459,0
442,22,166,77,0,1,0,301,1,1,0,0,1,0,0,1,571,0,1,572,0
443,20,217,68,0,1,1,434,2,0,2,0,0,3,0,1,749,0,2,751,0
444,25,199,38,0,1,3,656,1,0,1,0,3,2,0,0,929,0,3,932,0
445,25,210,44,1,1,1,516,0,0,1,0,0,0,0,1,800,0,4,804,0
446,16,176,135,1,0,1,450,1,0,2,0,0,0,0,0,782,0,1,783,0
447,23,111,81,0,0,1,361,1,1,0,0,0,0,0,1,580,0,1,581,0
448,29,131,58,0,0,3,384,0,1,0,0,0,0,0,0,606,0,6,612,0
449,17,133,77,0,1,0,317,0,0,1,0,1,0,1,1,549,0,0,549,0
450,19,144,65,1,1,1,434,0,1,1,2,0,1,1,0,671,0,1,672,0
451,23,132,81,0,3,5,420,2,0,2,1,2,0,1,1,673,0,1,674,0
452,12,139,101,2,5,1,440,0,0,0,0,1,1,0,1,703,0,4,707,0
453,17,96,41,0,1,1,257,1,0,2,1,1,0,0,0,418,0,0,418,0
454,26,176,124,3,1,4,480,0,0,1,0,0,0,0,1,816,0,5,821,0
455,23,168,74,0,0,1,471,0,0,0,0,0,1,1,1,740,0,3,743,0
456,39,164,68,0,1,0,490,1,0,2,0,0,3,0,0,768,0,2,770,0
457,29,141,60,0,0,3,506,1,0,1,0,1,0,0,2,744,0,3,747,0
458,17,111,91,0,0,0,339,0,0,0,0,1,0,0,0,559,0,2,561,0
459,e 912,151,83,0,0,1,277,1,0,0,0,1,0,1,0,527,0,1,528,0
460,17,144,55,0,0,0,331,0,0,0,0,1,0,0,1,549,0,0,549,0
461,21,159,67,0,1,2,277,0,1,0,0,0,0,0,0,528,0,0,528,0
462,33,217,103,0,1,4,562,1,1,1,0,0,0,0,1,924,0,3,927,0
463,19,89,50,0,1,1,321,1,0,0,0,0,1,1,0,484,0,1,485,0
464,46,168,79,3,0,0,510,2,0,1,2,0,1,0,0,812,0,1,813,0
465,24,115,59,0,0,2,234,1,1,0,0,0,1,0,0,437,0,1,438,0
466,32,125,58,0,0,1,371,0,0,0,1,0,0,0,0,588,0,2,590,0
467,41,176,97,1,0,0,521,0,0,0,0,1,1,2,0,840,0,2,842,0
468,16,117,64,0,0,2,266,0,0,1,0,0,0,0,0,466,0,4,470,0
469,19,129,55,0,0,2,320,0,0,0,0,0,0,0,0,525,0,1,526,0
470,15,110,53,0,0,0,277,0,0,0,0,0,0,0,0,455,0,0,455,0
471,23,96,45,0,0,0,313,0,0,1,0,1,0,0,0,479,0,5,484,0
472,25,145,81,0,2,1,365,0,0,0,0,2,0,0,0,621,0,1,622,0
473,20,73,59,0,0,1,206,0,1,0,0,0,0,0,0,360,0,0,360,0
474,15,95,34,2,0,1,266,0,0,0,0,0,0,0,0,413,0,0,413,0
475,23,128,64,0,0,2,287,0,0,0,0,0,0,0,0,504,0,2,506,0
476,14,161,41,1,1,0,231,0,0,1,0,1,0,1,0,452,0,1,453,0
477,12,183,42,0,0,0,453,1,0,0,0,0,0,0,0,691,0,0,691,0
478,41,156,68,0,0,0,351,0,0,0,1,0,0,0,0,617,0,1,618,0
479,23,152,39,2,0,0,408,0,0,0,0,0,0,0,0,624,0,5,629,0
480,15,86,40,0,2,1,228,0,0,0,0,0,0,0,0,372,0,3,375,0
481,22,111,66,1,0,0,430,0,0,0,0,0,0,0,0,630,0,2,632,0
482,37,136,72,0,0,1,370,0,0,1,1,0,0,0,1,619,0,2,621,0
483,26,133,54,1,1,1,296,0,0,0,0,0,0,0,0,512,0,1,513,0
484,27,189,73,2,0,1,416,1,0,0,0,0,0,0,2,711,0,3,714,0
485,47,195,45,0,0,0,418,1,1,0,0,1,0,0,0,708,0,0,708,0
486,27,127,71,1,0,2,309,0,1,0,0,1,0,0,0,539,0,4,543,0
487,36,201,104,0,1,4,383,1,0,0,1,0,0,0,0,731,0,0,731,0
488,37,215,204,1,0,3,435,1,1,1,0,0,0,0,0,898,0,5,903,0
489,20,168,106,2,0,0,314,0,0,1,0,0,0,0,0,611,0,6,617,0
490,30,220,175,1,0,2,668,1,1,1,1,0,1,1,1,1103,0,3,1106,0
491,9,173,217,1,0,2,383,1,1,3,0,0,1,2,0,793,0,2,795,0
492,13,184,122,2,1,4,322,0,1,0,1,0,0,1,1,652,0,0,652,0
493,17,101,66,1,0,2,194,2,0,0,0,0,0,0,0,383,0,1,384,0
494,13,255,91,1,1,1,233,0,0,0,0,0,0,0,1,596,0,1,597,0
495,30,258,113,2,0,2,432,1,0,0,0,0,0,1,0,839,0,2,841,0
496,25,169,117,2,0,4,431,0,0,0,0,0,2,0,0,750,0,6,756,0
497,26,171,144,0,0,1,497,1,0,1,0,0,0,1,0,842,0,2,844,0
498,12,102,69,1,1,1,287,0,0,0,0,0,0,0,0,473,0,2,475,0
499,13,158,204,2,2,2,405,0,0,1,0,0,0,2,0,789,0,3,792,0
500,25,130,68,0,0,2,289,0,1,0,0,0,0,0,0,515,0,1,516,0
501,21,140,65,0,0,0,226,1,0,0,0,1,1,0,1,456,0,2,458,0
502,4,49,21,0,0,1,107,0,0,0,0,0,0,0,0,182,0,0,182,0
503,26,198,103,0,1,4,339,0,1,0,0,2,0,0,0,674,0,1,675,0
504,23,170,82,2,0,2,351,2,1,1,1,1,0,0,0,636,0,0,636,0
505,31,196,63,0,0,1,298,0,0,0,0,1,0,0,0,590,0,3,593,0
506,17,159,73,0,1,1,414,0,0,1,0,0,0,0,0,666,0,2,668,0
507,21,153,89,0,1,3,313,0,0,0,0,0,0,0,0,580,0,1,581,0
508,18,157,110,0,3,0,338,1,0,0,0,0,0,0,1,628,0,4,632,0
509,29,178,106,0,0,2,555,0,0,1,0,0,1,0,1,873,0,2,875,0
510,e 1202,217,104,0,1,0,325,0,1,0,0,0,1,0,0,671,0,2,673,0
511,10,84,73,0,0,0,139,0,0,0,0,0,0,0,0,306,0,2,308,0
512,13,124,60,0,1,2,185,1,0,0,0,0,0,0,0,386,0,3,389,0
513,29,147,109,1,0,0,302,0,1,0,0,0,0,0,0,589,0,2,591,0
514,17,132,73,0,0,0,256,0,0,1,0,0,1,0,2,482,0,2,484,0
515,17,192,89,2,0,1,243,0,0,0,0,0,0,0,0,544,0,0,544,0
516,26,177,95,0,0,3,454,0,0,0,1,1,0,0,0,757,0,4,761,0
517,18,180,67,0,0,2,288,2,0,0,0,0,1,0,1,559,0,0,559,0
518,32,178,132,1,0,3,290,1,0,0,0,0,0,0,0,637,0,4,641,0
519,21,186,73,0,1,0,275,0,0,0,0,2,0,0,0,558,0,5,563,0
520,43,152,113,0,1,2,316,0,0,1,0,0,0,1,0,629,0,3,632,0
521,38,178,113,0,1,0,441,0,0,2,0,0,0,0,0,773,0,4,777,0
522,19,165,139,1,2,3,411,1,0,1,0,0,0,0,0,742,0,4,746,0
523,14,122,65,1,0,2,200,0,0,0,0,0,1,0,0,405,0,2,407,0
524,23,152,83,0,1,0,255,0,1,0,0,1,1,0,0,517,0,1,518,0
525,27,152,75,0,2,1,275,0,1,0,0,0,0,0,0,533,0,2,535,0
526,21,122,132,1,0,0,315,0,0,0,0,0,0,0,0,591,0,1,592,0
