Polling Station No,DURAI CHANDRASEKAR,SANTHOSHKUMAR.J,BALARAMAN.P,RAJATHI.M,ASHOK PRIYADARSHAN,RAJA.S,KOTTEESWARAN. K,MALATHI.S,DR.RAVI.M.S,NAGAIYAN.G,BARATHIRAJA.K,RAJASEKAR.J,VENKATESAN.S,Total Valid Votes,Rejected Votes,NOTA,Total,Tendered Votes
1,189,1,221,37,2,0,3,2,439,0,0,2,2,898,0,2,900,0
2,126,4,317,24,1,1,0,2,401,1,1,5,1,884,0,3,887,0
3,164,0,307,19,0,1,0,0,262,1,1,2,2,759,0,4,763,0
4,172,2,199,15,1,1,0,0,376,1,0,3,1,771,0,0,771,0
5,152,1,261,33,3,0,0,2,461,3,0,0,2,918,0,4,922,0
6,140,4,144,13,0,0,0,0,219,1,1,1,0,523,0,1,524,0
7,67,2,96,7,0,0,0,0,221,1,0,0,2,396,0,0,396,0
8,130,1,57,16,1,1,0,2,382,1,0,0,0,591,0,1,592,0
9,142,1,140,18,2,1,0,2,302,1,0,0,0,609,0,1,610,0
10,147,0,337,12,4,1,0,1,305,1,1,1,3,813,0,4,817,0
11,58,0,199,8,0,0,0,0,104,0,0,0,0,369,0,2,371,0
12,168,3,332,26,0,3,0,1,271,1,4,1,1,811,0,3,814,0
13,100,3,372,20,0,0,2,3,389,0,1,2,1,893,0,3,896,0
14,88,2,301,15,2,2,2,2,375,0,0,4,1,794,0,2,796,0
15,175,7,183,15,0,2,1,1,206,0,0,1,1,592,0,1,593,0
16,39,0,48,5,1,0,0,1,84,0,0,0,0,178,0,1,179,0
17,198,2,240,16,0,1,0,1,241,2,0,0,1,702,0,1,703,0
18,234,1,242,20,2,0,1,0,280,1,2,2,0,785,0,3,788,0
19,163,1,210,15,1,0,2,0,252,0,0,0,0,644,0,1,645,0
20,199,4,239,24,5,2,2,1,423,2,1,1,2,905,0,1,906,0
21,131,5,163,17,0,1,0,3,484,1,0,2,1,808,0,1,809,0
22,208,3,314,23,9,2,1,1,392,2,2,1,2,960,0,10,970,0
23,290,0,276,29,2,1,0,0,331,1,0,1,2,933,0,2,935,0
24,157,1,161,29,0,0,0,0,242,0,0,0,0,590,0,0,590,0
25,191,4,144,12,1,2,0,2,364,0,0,0,1,721,0,2,723,0
26,201,0,95,15,2,0,1,0,289,0,0,0,1,604,0,1,605,0
27,180,1,88,13,6,0,0,2,356,0,1,0,0,647,0,0,647,0
28,180,2,132,1,16,2,1,0,278,1,3,1,4,621,0,1,622,0
29,523,2,132,5,0,1,0,3,279,0,1,0,0,946,0,1,947,0
30,176,5,218,28,3,2,2,9,674,3,1,2,1,1124,0,2,1126,0
31,202,3,99,15,1,2,2,1,374,2,0,0,1,702,0,1,703,0
32,155,1,165,20,2,1,0,2,355,2,1,0,0,704,0,1,705,0
33,180,0,204,27,1,0,0,1,284,1,0,0,1,699,0,2,701,0
34,148,3,158,30,1,0,1,2,387,1,0,1,1,733,0,1,734,0
35,56,3,95,9,0,1,0,3,228,1,1,1,1,399,0,2,401,0
36,184,2,202,17,0,2,0,3,473,0,0,3,1,887,0,4,891,0
37,154,1,266,42,0,0,0,0,398,1,0,0,0,862,0,2,864,0
38,219,1,117,11,0,0,0,0,134,2,2,0,0,486,0,0,486,0
39,269,1,141,32,2,0,0,1,496,1,0,2,0,945,0,2,947,0
40,401,3,81,36,4,0,0,2,415,3,0,4,1,950,0,2,952,0
41,256,1,146,16,3,2,0,3,514,2,2,2,2,949,0,5,954,0
42,280,1,106,14,0,0,2,1,386,0,1,0,1,792,0,2,794,0
43,300,1,263,15,0,0,0,1,399,0,0,0,0,979,0,0,979,0
44,226,2,122,11,3,0,3,3,417,1,0,0,0,788,0,4,792,0
45,168,18,189,13,4,0,0,2,253,0,0,2,0,649,0,3,652,0
46,145,5,161,16,1,1,0,2,280,1,1,2,0,615,0,3,618,0
47,160,2,186,19,2,0,0,2,282,1,0,1,0,655,0,3,658,0
48,113,3,233,16,76,0,0,2,325,1,0,0,4,773,0,3,776,0
49,126,3,136,11,11,1,1,1,162,1,0,1,0,454,0,0,454,0
50,182,3,248,19,0,0,0,0,282,1,1,3,0,739,0,3,742,0
51,191,1,234,11,3,1,0,2,476,1,1,3,2,926,0,5,931,0
52,113,0,110,6,0,5,0,1,176,1,0,0,2,414,0,1,415,0
53,101,1,116,17,0,1,0,0,278,0,1,1,0,516,0,1,517,0
54,135,1,252,14,0,1,0,1,277,0,1,0,1,683,0,9,692,0
55,182,4,194,34,2,0,0,2,419,1,1,2,0,841,0,2,843,0
56,107,0,105,2,1,0,0,2,189,0,1,0,1,408,0,1,409,0
57,70,4,176,14,0,0,1,0,218,2,0,1,3,489,0,4,493,0
58,192,0,175,10,0,0,0,0,199,0,0,0,0,576,0,4,580,0
59,274,0,147,10,1,3,0,3,405,1,0,0,2,846,0,4,850,0
60,190,3,86,8,0,0,0,0,196,1,2,0,1,487,0,1,488,0
61,151,4,150,20,0,3,1,0,345,0,1,0,2,677,0,0,677,0
62,185,2,214,8,1,0,0,0,182,0,0,0,0,592,0,4,596,0
63,122,2,91,12,0,0,0,1,237,0,1,0,1,467,0,0,467,0
64,187,4,183,13,0,2,1,0,449,1,0,0,1,841,0,4,845,0
65,161,2,92,16,1,0,0,0,257,0,0,0,0,529,0,2,531,0
66,167,2,84,10,0,0,0,1,287,0,0,0,2,553,0,4,557,0
67,174,3,152,24,0,0,0,1,310,0,0,1,3,668,0,4,672,0
68,113,8,303,25,1,1,1,0,288,1,0,1,1,743,0,1,744,0
69,248,0,253,16,0,1,0,1,463,0,0,2,0,984,0,5,989,0
70,169,0,191,25,1,2,2,1,357,3,2,0,1,754,0,1,755,0
71,161,2,362,30,8,1,0,1,414,0,1,1,2,983,0,5,988,0
72,210,1,192,40,0,2,0,1,447,0,0,0,1,894,0,1,895,0
73,141,4,227,22,1,0,1,1,265,1,1,3,1,668,0,2,670,0
74,128,2,405,22,1,2,1,2,403,1,1,1,0,969,0,7,976,0
75,166,2,332,11,0,0,0,1,316,0,1,1,1,831,0,2,833,0
76,146,3,201,13,0,1,0,1,271,2,1,0,0,639,0,3,642,0
77,126,0,150,26,0,0,1,1,322,0,0,1,0,627,0,2,629,0
78,109,0,140,10,2,0,0,4,326,1,0,0,0,592,0,4,596,0
79,176,2,142,23,0,0,0,1,494,2,0,1,3,844,0,2,846,0
80,160,4,137,10,1,2,1,2,376,0,0,0,0,693,0,1,694,0
81,144,0,164,13,1,1,0,1,375,0,0,0,0,699,0,0,699,0
82,158,0,225,24,0,1,1,2,464,0,1,0,0,876,0,1,877,0
83,181,3,227,27,0,0,0,3,315,0,4,2,0,762,0,2,764,0
84,170,1,278,23,0,1,0,0,462,0,1,3,0,939,0,3,942,0
85,99,0,118,32,1,0,0,1,322,2,1,1,0,577,0,0,577,0
86,132,0,139,18,0,2,0,0,350,1,0,1,0,643,0,4,647,0
87,143,1,222,16,1,1,1,1,283,0,1,3,0,673,0,4,677,0
88,121,1,327,21,1,1,1,2,350,3,1,3,0,832,0,6,838,0
89,98,1,150,18,1,0,1,3,297,0,0,1,0,570,0,1,571,0
90,113,2,124,13,0,0,1,1,361,1,0,0,0,616,0,1,617,0
91,90,1,96,6,0,0,0,0,95,0,0,0,1,289,0,2,291,0
92,195,0,156,18,1,0,2,2,358,2,0,3,2,739,0,0,739,0
93,187,8,187,25,1,1,0,1,335,0,1,2,1,749,0,3,752,0
94,130,2,267,6,0,0,2,0,269,1,0,0,2,679,0,5,684,0
95,38,3,171,15,0,0,0,0,207,1,2,2,0,439,0,0,439,0
96,267,1,180,15,2,1,3,3,373,3,0,0,2,850,0,4,854,0
97,184,1,167,17,1,2,8,1,290,0,0,0,0,671,0,2,673,0
98,163,3,214,29,3,0,0,2,519,0,2,0,0,935,0,5,940,0
99,104,7,88,21,1,0,2,2,367,0,1,0,0,593,0,4,597,0
100,276,0,167,27,2,1,1,1,441,1,0,2,2,921,0,5,926,0
101,141,0,139,20,2,0,2,0,355,0,0,1,1,661,0,1,662,0
102,133,1,156,17,0,2,0,0,350,1,0,0,0,660,0,3,663,0
103,89,0,113,9,0,0,0,3,188,0,1,0,0,403,0,2,405,0
104,113,0,144,17,0,0,0,1,240,0,1,1,0,517,0,4,521,0
105,77,1,109,8,1,0,0,1,219,1,1,2,0,420,0,0,420,0
106,207,2,189,33,1,0,1,4,393,0,0,1,0,831,0,7,838,0
107,230,2,155,16,0,0,0,0,314,0,0,1,1,719,0,0,719,0
108,133,1,42,3,0,0,0,0,154,0,0,0,0,333,0,2,335,0
109,180,3,203,26,0,0,1,1,367,2,0,2,0,785,0,2,787,0
110,132,0,110,18,0,0,0,1,296,0,0,0,1,558,0,1,559,0
111,268,1,183,24,0,1,1,2,458,0,1,1,0,940,0,4,944,0
112,135,0,138,20,0,2,0,0,198,0,1,0,0,494,0,6,500,0
113,170,2,103,16,0,0,0,0,240,1,0,0,0,532,0,2,534,0
114,89,0,57,8,1,0,0,0,102,0,0,0,0,257,0,1,258,0
115,244,3,169,32,1,0,0,0,378,1,0,1,0,829,0,3,832,0
116,268,0,147,23,2,2,2,0,381,0,1,0,1,827,0,3,830,0
117,250,1,140,43,1,3,0,1,422,1,1,2,0,865,0,4,869,0
118,163,3,187,21,1,1,1,1,415,1,2,1,1,798,0,1,799,0
119,210,5,130,21,0,1,0,1,282,0,0,0,0,650,0,4,654,0
120,141,1,90,24,1,0,0,4,212,0,0,1,0,474,0,0,474,0
121,226,2,139,18,1,0,0,2,271,2,0,1,1,663,0,3,666,0
122,254,2,236,31,1,1,0,0,391,2,0,0,0,918,0,4,922,0
123,148,1,137,30,2,0,1,2,367,1,0,1,0,690,0,4,694,0
124,91,0,55,11,0,1,1,0,144,0,0,0,0,303,0,2,305,0
125,171,5,189,16,3,3,3,1,396,1,0,0,1,789,0,2,791,0
126,144,0,116,15,2,1,2,6,406,1,0,2,0,695,0,2,697,0
127,150,1,209,32,0,1,0,2,457,0,2,1,0,855,0,4,859,0
128,148,0,122,10,1,1,1,0,271,1,0,0,0,555,0,0,555,0
129,144,1,161,35,0,0,0,0,321,0,0,0,0,662,0,3,665,0
130,111,0,155,16,1,0,0,0,189,0,0,0,0,472,0,0,472,0
131,131,3,114,24,0,1,0,0,253,1,0,4,1,532,0,3,535,0
132,147,0,120,28,0,0,0,0,285,1,1,1,0,583,0,2,585,0
133,215,1,151,39,0,1,1,0,429,0,0,2,1,840,0,10,850,0
134,153,0,147,15,1,0,0,1,226,0,1,0,1,545,0,3,548,0
135,140,0,119,15,1,1,1,1,224,0,0,0,0,502,0,2,504,0
136,120,2,147,27,0,0,1,1,226,0,0,0,0,524,0,2,526,0
137,231,0,207,28,1,2,0,1,438,0,1,3,0,912,0,5,917,0
138,215,1,268,27,0,1,1,1,390,0,1,1,0,906,0,3,909,0
139,138,1,218,18,0,2,0,0,365,0,0,1,2,745,0,2,747,0
140,214,1,161,40,0,0,1,2,417,0,0,1,0,837,0,1,838,0
141,239,2,153,44,0,0,0,0,470,2,0,1,2,913,0,4,917,0
142,82,0,44,20,0,2,0,0,215,0,1,0,0,364,0,3,367,0
143,77,0,214,10,0,0,1,0,317,3,0,1,3,626,0,3,629,0
144,212,1,173,39,2,2,0,4,552,1,1,1,2,990,0,5,995,0
145,172,1,130,35,1,1,2,2,457,2,1,1,0,805,0,3,808,0
146,178,2,168,14,2,1,1,1,210,2,0,0,0,579,0,2,581,0
147,146,2,118,12,0,0,1,0,299,0,0,1,1,580,0,2,582,0
148,101,1,190,21,0,1,2,0,285,1,0,0,1,603,0,3,606,0
149,90,0,102,14,2,1,1,3,317,1,0,0,0,531,0,3,534,0
150,165,2,309,24,0,1,1,2,490,1,2,0,0,997,0,6,1003,0
151,61,2,190,20,1,1,0,2,239,1,0,0,1,518,0,2,520,0
152,89,1,155,18,0,0,0,0,269,0,0,2,0,534,0,1,535,0
153,173,4,158,31,1,1,0,2,358,0,4,3,0,735,0,2,737,0
154,139,2,314,34,2,1,1,5,347,1,0,3,1,850,0,5,855,0
155,187,3,254,26,1,2,2,2,290,2,0,0,0,769,0,4,773,0
156,151,1,146,40,0,0,0,1,427,0,1,0,0,767,0,3,770,0
157,101,0,87,23,1,0,1,1,258,0,0,1,0,473,0,1,474,0
158,49,0,59,1,0,0,0,1,131,1,0,1,0,243,0,0,243,0
159,177,3,110,14,0,0,0,2,439,0,0,0,5,750,0,2,752,0
160,172,0,78,14,0,1,0,0,237,0,2,0,2,506,0,1,507,0
161,280,5,80,27,1,2,0,4,308,0,0,1,0,708,0,1,709,0
162,143,3,121,24,1,2,1,5,349,1,2,1,1,654,0,4,658,0
163,114,1,162,16,1,1,0,1,354,3,0,1,0,654,0,3,657,0
164,205,0,277,58,1,0,1,0,475,3,2,2,1,1025,0,3,1028,0
165,215,1,191,27,1,0,0,1,496,0,1,1,1,935,0,6,941,0
166,158,1,93,17,1,1,3,2,359,0,0,0,0,635,0,4,639,0
167,255,1,153,30,0,2,0,2,379,0,0,0,1,823,0,0,823,0
168,112,1,97,11,1,0,0,0,317,1,0,2,6,548,0,2,550,0
169,130,0,133,25,0,0,1,1,430,1,0,0,0,721,0,2,723,0
170,408,2,64,27,1,0,0,0,382,0,0,0,0,884,0,2,886,0
171,188,2,227,29,1,0,0,2,344,0,0,0,0,793,0,2,795,0
172,98,3,60,19,0,0,0,0,171,1,0,0,0,352,0,2,354,0
173,141,2,151,11,0,0,0,0,318,0,0,0,0,623,0,2,625,0
174,130,1,115,15,0,0,0,0,264,1,0,0,0,526,0,6,532,0
175,126,2,139,34,2,0,0,0,507,0,1,0,0,811,0,2,813,0
176,118,1,134,30,1,1,0,0,336,0,0,1,0,622,0,1,623,0
177,127,0,133,22,1,0,0,0,430,0,1,0,1,715,0,5,720,0
178,176,2,105,33,0,1,0,0,388,2,0,0,0,707,0,1,708,0
179,234,1,134,30,0,0,1,0,283,1,0,2,0,686,0,2,688,0
180,615,4,87,19,0,0,0,2,347,0,0,0,0,1074,0,5,1079,0
181,313,0,83,14,1,0,0,1,440,1,0,0,1,854,0,7,861,0
182,60,6,68,15,0,0,0,1,169,0,0,0,0,319,0,0,319,0
183,318,1,66,12,0,0,0,0,420,2,0,1,1,821,0,3,824,0
184,157,0,64,21,3,1,2,0,230,0,0,0,1,479,0,2,481,0
185,240,1,168,31,3,1,0,2,579,0,1,3,1,1030,0,0,1030,0
186,288,3,122,10,0,0,0,1,338,0,1,0,0,763,0,3,766,0
187,86,1,70,21,0,0,0,0,201,0,0,0,0,379,0,1,380,0
188,132,4,158,21,0,0,0,0,275,1,0,1,0,592,0,2,594,0
189,172,1,156,24,0,0,0,0,374,0,0,1,0,728,0,3,731,0
190,117,0,87,20,1,1,0,0,242,0,0,1,1,470,0,4,474,0
191,181,3,247,33,4,0,2,2,509,0,1,2,1,985,0,8,993,0
192,155,2,162,7,0,1,0,2,365,1,1,3,0,699,0,0,699,0
193,118,1,97,27,0,1,0,2,296,1,0,2,1,546,0,1,547,0
194,216,2,100,26,0,0,0,0,427,1,0,0,0,772,0,6,778,0
195,115,1,110,22,2,1,0,1,310,0,0,1,1,564,0,2,566,0
196,117,0,55,22,0,0,0,0,190,0,0,0,0,384,0,0,384,0
197,131,2,138,14,1,1,0,1,268,0,0,1,0,557,0,3,560,0
198,146,4,93,29,1,0,0,3,314,1,1,0,0,592,0,2,594,0
199,118,2,78,23,1,0,1,1,252,1,0,0,0,477,0,2,479,0
200,194,6,110,21,3,0,2,0,290,1,1,0,0,628,0,2,630,0
201,127,1,75,9,0,0,0,0,194,0,1,1,0,408,0,4,412,0
202,134,0,113,22,0,0,1,1,262,2,0,1,0,536,0,1,537,0
203,154,0,239,19,0,0,0,2,355,1,1,2,0,773,0,6,779,0
204,120,1,138,27,1,3,1,2,438,0,0,1,2,734,0,3,737,0
205,147,4,163,25,0,3,1,3,436,2,1,2,0,787,0,4,791,0
206,109,1,114,45,0,2,1,0,302,1,0,0,0,575,0,0,575,0
207,125,3,110,21,1,0,1,0,252,1,0,2,0,516,0,6,522,0
208,123,4,85,29,0,0,0,1,261,1,0,1,0,505,0,4,509,0
209,236,1,156,21,1,0,0,0,435,1,1,2,0,854,0,4,858,0
210,134,2,138,26,0,2,0,1,332,0,0,0,1,636,0,2,638,0
211,74,2,84,11,0,1,0,0,215,0,0,0,2,389,0,1,390,0
212,135,2,214,42,3,2,0,3,340,4,2,2,0,749,0,8,757,0
213,88,1,133,13,0,1,1,1,307,1,1,2,0,549,0,4,553,0
214,187,2,154,40,0,0,1,3,459,0,0,1,1,848,0,5,853,0
215,252,12,169,18,0,2,0,0,405,1,0,0,0,859,0,3,862,0
216,222,0,73,32,1,2,1,0,387,1,0,2,0,721,0,4,725,0
217,164,1,63,10,1,1,0,1,300,0,0,0,1,542,0,1,543,0
218,264,2,98,27,0,1,0,1,380,1,0,1,0,775,0,2,777,0
219,184,4,130,15,0,1,0,0,408,0,0,0,0,742,0,2,744,0
220,219,2,66,22,1,1,1,1,326,0,0,1,0,640,0,1,641,0
221,309,2,97,41,1,0,0,1,510,0,0,1,1,963,0,3,966,0
222,178,1,80,34,1,0,0,0,455,0,0,0,0,749,0,5,754,0
223,265,4,81,19,0,0,0,0,257,1,0,1,1,629,0,0,629,0
224,151,1,87,14,0,0,0,1,327,0,0,0,0,581,0,2,583,0
225,132,0,54,22,1,0,0,1,357,1,0,1,0,569,0,2,571,0
226,212,0,81,20,1,2,2,5,572,1,0,2,2,900,0,1,901,0
227,176,1,110,32,0,1,0,1,379,0,1,0,0,701,0,4,705,0
228,99,2,50,17,0,1,0,2,367,0,0,0,0,538,0,0,538,0
229,93,0,62,10,1,0,1,1,291,2,0,1,0,462,0,1,463,0
230,130,0,45,11,0,0,0,1,176,0,0,0,0,363,0,3,366,0
231,340,0,65,25,1,0,1,1,455,0,0,0,1,889,0,3,892,0
232,246,3,111,30,0,3,0,0,308,1,0,0,0,702,0,0,702,0
233,320,1,148,54,0,0,0,0,425,1,0,1,0,950,0,2,952,0
234,299,2,177,24,3,2,0,4,480,2,0,1,0,994,0,4,998,0
235,181,2,76,28,1,0,0,3,559,0,0,0,0,850,0,1,851,0
236,208,2,120,15,1,0,0,2,413,0,0,1,1,763,0,3,766,0
237,103,2,58,22,0,1,1,0,292,0,1,1,0,481,0,3,484,0
238,129,0,124,21,0,0,0,2,230,0,0,1,0,507,0,1,508,0
239,268,1,278,22,1,0,0,1,407,1,1,2,1,983,0,6,989,0
240,190,1,134,23,3,0,0,1,509,1,1,2,1,866,0,6,872,0
241,128,3,90,27,0,1,0,1,430,0,1,1,3,685,0,3,688,0
242,89,1,160,33,1,0,0,0,350,0,0,1,1,636,0,3,639,0
243,104,0,79,23,0,0,1,3,222,0,1,1,0,434,0,4,438,0
244,133,2,116,17,0,0,0,0,396,3,0,0,1,668,0,3,671,0
245,208,0,135,29,0,1,0,0,317,0,1,0,0,691,0,4,695,0
246,79,2,150,22,1,0,0,0,378,1,1,0,0,634,0,2,636,0
247,161,0,68,18,0,0,0,0,202,2,0,0,2,453,0,4,457,0
248,214,0,118,42,0,0,0,1,447,0,0,1,0,823,0,3,826,0
249,105,0,77,18,0,0,1,0,161,1,0,0,0,363,0,2,365,0
250,152,2,103,25,0,0,1,0,248,1,0,0,0,532,0,3,535,0
251,174,1,236,27,0,0,2,0,440,0,0,1,0,881,0,5,886,0
252,117,1,94,26,0,0,0,0,364,0,0,1,0,603,0,2,605,0
253,211,5,103,34,0,1,1,1,469,0,0,1,0,826,0,1,827,0
254,218,2,134,32,0,1,2,1,499,0,0,1,0,890,0,4,894,0
255,182,1,181,9,0,0,0,1,431,1,0,0,0,806,0,4,810,0
256,42,0,254,9,0,0,0,1,144,1,0,0,0,451,0,0,451,0
257,150,0,143,15,0,7,1,1,298,1,1,2,0,619,0,3,622,0
258,187,1,194,22,1,0,3,1,427,1,2,0,1,840,0,1,841,0
259,125,0,226,14,0,1,0,0,412,0,0,1,0,779,0,5,784,0
260,187,0,276,23,1,0,0,1,456,2,2,2,0,950,0,2,952,0
261,232,2,212,15,0,5,0,2,379,0,0,3,1,851,0,2,853,0
262,126,2,86,7,0,0,0,2,294,0,0,0,0,517,0,5,522,0
263,155,1,237,20,1,2,0,2,516,0,0,1,0,935,0,3,938,0
264,226,2,206,24,2,0,1,1,347,0,0,1,0,810,0,4,814,0
265,146,3,63,7,2,1,1,0,303,0,2,2,0,530,0,0,530,0
266,198,2,166,12,2,1,0,1,358,0,0,1,0,741,0,7,748,0
267,82,5,468,22,0,0,2,2,179,0,0,1,0,761,0,1,762,0
268,131,1,185,15,0,2,0,4,406,4,2,1,1,752,0,2,754,0
269,164,1,245,13,0,0,1,0,403,0,0,0,0,827,0,3,830,0
270,145,2,190,16,1,2,0,0,304,0,2,0,2,664,0,1,665,0
271,197,2,163,11,0,1,0,2,352,2,0,1,0,731,0,0,731,0
272,298,1,246,6,1,0,1,2,435,1,0,2,0,993,0,2,995,0
273,144,0,204,13,1,1,0,0,247,0,0,0,0,610,0,0,610,0
274,142,3,93,17,0,0,0,1,306,0,0,0,0,562,0,0,562,0
275,61,2,125,11,0,0,1,0,248,0,0,0,0,448,0,0,448,0
276,110,3,116,22,0,7,0,1,317,2,0,0,0,578,0,2,580,0
277,125,2,138,32,1,4,0,1,363,2,0,1,2,671,0,2,673,0
278,174,0,85,23,0,24,1,1,328,0,0,2,0,638,0,5,643,0
279,158,3,109,22,0,14,1,0,358,2,1,1,1,670,0,7,677,0
280,105,2,128,9,0,0,0,0,146,0,2,1,0,393,0,3,396,0
281,149,3,221,16,1,1,0,3,538,0,0,1,2,935,0,1,936,0
282,77,2,71,5,0,0,0,1,232,2,0,0,3,393,0,1,394,0
283,228,2,217,22,0,1,0,1,313,1,2,1,0,788,0,7,795,0
284,129,2,171,32,0,7,1,0,425,0,0,2,1,770,0,3,773,0
285,196,1,135,35,0,2,1,2,429,2,0,1,1,805,0,3,808,0
286,107,0,113,16,1,0,0,0,219,1,0,1,0,458,0,3,461,0
287,132,0,225,20,0,1,0,1,375,0,0,2,0,756,0,2,758,0
288,225,2,175,29,1,2,1,0,426,0,1,2,0,864,0,4,868,0
289,139,2,146,11,1,1,0,2,384,1,1,1,1,690,0,2,692,0
290,137,2,449,18,0,0,0,2,278,0,0,1,3,890,0,5,895,0
291,178,3,241,18,1,0,0,2,378,3,1,1,2,828,0,5,833,0
292,122,5,103,19,0,4,0,1,276,1,0,0,1,532,0,1,533,0
293,172,0,212,19,1,0,0,0,355,0,0,0,0,759,0,4,763,0
294,361,1,132,15,3,4,0,0,389,0,1,2,1,909,0,2,911,0
295,265,3,215,16,0,1,0,3,432,1,0,2,0,938,0,1,939,0
296,174,0,209,11,1,0,0,0,220,0,0,1,0,616,0,3,619,0
297,231,2,134,19,0,1,0,2,396,0,0,0,2,787,0,6,793,0
298,210,1,111,19,0,0,1,1,297,0,0,0,0,640,0,0,640,0
299,98,1,146,7,0,0,0,1,248,2,0,2,0,505,0,4,509,0
300,75,1,132,2,0,0,0,0,215,0,0,2,0,427,0,2,429,0
301,84,3,102,9,0,1,0,0,386,0,0,2,1,588,0,2,590,0
302,138,2,247,24,0,1,0,2,280,0,0,2,0,696,0,2,698,0
303,187,0,346,22,0,1,0,1,405,0,0,0,0,962,0,3,965,0
304,83,3,104,14,2,0,1,0,266,2,1,0,0,476,0,1,477,0
305,204,1,102,9,1,3,0,4,520,0,0,1,0,845,0,0,845,0
306,164,1,170,20,0,6,2,0,393,0,1,0,1,758,0,4,762,0
307,81,0,188,9,1,1,0,1,267,0,0,0,0,548,0,2,550,0
308,168,2,194,15,3,1,1,2,469,1,1,0,0,857,0,2,859,0
309,217,1,161,30,3,0,1,3,407,1,1,2,1,828,0,5,833,0
310,75,1,140,19,2,1,0,2,216,0,0,2,0,458,0,1,459,0
311,196,2,252,23,0,0,1,2,354,3,0,4,1,838,0,2,840,0
312,166,2,171,24,1,1,3,2,319,1,0,0,0,690,0,1,691,0
313,120,1,160,15,1,0,2,1,267,1,1,0,0,569,0,1,570,0
314,34,0,100,1,1,0,0,1,128,2,1,1,0,269,0,0,269,0
315,45,1,69,5,0,0,0,0,271,1,2,1,0,395,0,0,395,0
316,203,4,188,11,0,0,0,0,306,0,1,3,1,717,0,1,718,0
317,173,4,114,26,0,0,0,1,364,0,2,0,1,685,0,4,689,0
318,89,6,142,14,1,0,0,1,204,0,0,0,0,457,0,1,458,0
319,116,1,40,9,0,0,0,1,230,0,1,1,0,399,0,7,406,0
320,162,2,116,37,0,1,0,2,399,1,2,1,1,724,0,4,728,0
321,87,1,43,16,0,0,0,0,256,0,1,0,0,404,0,1,405,0
322,176,1,100,14,1,0,0,0,283,0,0,0,0,575,0,3,578,0
323,255,1,231,37,2,0,0,1,549,0,0,0,1,1077,0,2,1079,0
324,206,13,137,13,0,2,0,1,340,1,1,0,1,715,0,2,717,0
325,292,3,147,31,0,0,0,2,422,0,1,1,1,900,0,2,902,0
326,111,3,125,22,2,1,2,2,440,1,0,2,2,713,0,4,717,0
327,220,27,94,25,4,5,3,1,478,2,3,6,8,876,0,14,890,0
