Polling Station No,SHAN. RAMANATHAN,N. KRISHNAKUMAR,KARUPPU MURUGANANTHAM,H. MOHAMED ABDUL KHADIR,S. MUTHUVEL,R. VIJAYSARAVANAN,S. KARIKALA CHOLAN,D. KUMARAN,M. SANTHOSH,R. SABTHAGIRI,R. MURALIDHARAN,Total Valid Votes,Rejected Votes,NOTA,Total,Tendered Votes
1,282,63,147,3,4,433,5,1,0,0,3,941,0,5,946,0
2,383,48,114,0,2,387,5,0,2,2,4,947,0,5,952,0
3,167,15,82,1,2,206,1,0,1,0,0,475,0,2,477,0
4,247,33,101,1,3,293,1,0,0,0,3,682,0,9,691,0
5,202,16,71,1,2,287,2,0,1,1,0,583,0,6,589,0
6,232,32,110,0,4,346,3,0,2,0,4,733,0,3,736,0
7,227,21,137,1,0,382,6,0,2,0,16,792,0,4,796,0
8,224,34,76,2,2,364,5,1,4,0,2,714,0,4,718,0
9,234,33,72,0,0,303,1,1,0,0,8,652,0,4,656,0
10,118,26,117,0,0,216,0,0,0,0,1,478,0,0,478,1
11,194,64,110,0,2,335,3,0,0,0,2,710,0,2,712,0
12,286,42,69,1,1,410,5,2,2,2,2,822,0,2,824,0
13,181,37,89,0,1,298,3,0,1,0,3,613,0,6,619,0
14,278,38,113,4,1,376,4,2,0,3,2,821,0,10,831,0
15,258,46,115,0,1,298,1,0,0,1,4,724,0,10,734,0
16,271,21,90,1,1,346,2,0,0,0,0,732,0,5,737,1
17,145,25,143,3,0,288,3,2,0,1,2,612,0,5,617,0
18,180,28,78,1,2,356,8,3,2,1,10,669,0,4,673,0
19,137,39,105,2,2,299,1,0,1,1,3,590,0,4,594,0
20,230,38,202,1,1,358,4,0,0,0,0,834,0,3,837,0
21,186,25,120,0,2,256,1,0,0,2,5,597,0,1,598,0
22,208,16,107,1,1,193,1,0,2,0,4,533,0,4,537,0
23,189,30,108,1,1,307,5,0,0,0,4,645,0,6,651,0
24,221,27,86,1,3,285,3,0,0,0,4,630,0,5,635,0
25,369,21,141,2,5,440,5,1,0,0,2,986,0,2,988,0
26,149,26,79,2,1,321,2,0,0,1,2,583,0,2,585,1
27,134,31,71,1,2,268,2,0,0,0,0,509,0,4,513,0
28,127,16,56,1,4,201,4,0,0,2,1,412,0,0,412,0
29,228,27,94,1,4,407,4,1,2,0,4,772,0,3,775,2
30,181,15,22,0,3,385,3,0,0,0,2,611,0,2,613,0
31,164,19,35,2,4,449,5,0,0,0,2,680,0,2,682,0
32,122,14,71,0,2,253,3,0,0,0,5,470,0,7,477,0
33,266,18,34,0,2,267,1,0,0,2,1,591,0,5,596,0
34,218,29,62,0,2,374,2,1,0,2,2,692,0,5,697,0
35,160,19,64,2,1,336,2,0,1,1,3,589,0,0,589,0
36,138,26,98,0,1,251,2,0,0,0,1,517,0,1,518,0
37,222,14,63,1,3,533,7,0,8,0,1,852,0,1,853,0
38,229,26,86,1,2,370,5,1,2,0,5,727,0,1,728,0
39,194,24,68,2,3,397,4,0,0,2,3,697,0,2,699,0
40,184,26,89,1,3,341,4,1,1,3,0,653,0,1,654,0
41,119,17,68,0,0,211,3,0,0,0,0,418,0,1,419,0
42,145,21,70,1,3,240,1,0,1,0,1,483,0,3,486,0
43,274,43,120,0,0,475,5,0,2,2,1,922,0,2,924,0
44,316,32,78,2,1,333,4,2,0,1,3,772,0,8,780,0
45,227,24,54,0,3,306,6,0,1,0,3,624,0,1,625,0
46,239,36,81,1,1,358,2,1,0,1,1,721,0,4,725,0
47,174,19,50,1,3,220,3,0,0,0,1,471,0,4,475,0
48,206,21,66,0,3,273,4,0,0,0,0,573,0,8,581,0
49,182,23,40,4,3,235,2,0,0,0,6,495,0,3,498,0
50,175,25,61,0,2,235,1,0,1,0,5,505,0,2,507,0
51,166,7,24,0,0,221,1,0,2,0,0,421,0,1,422,0
52,227,40,97,0,2,409,6,2,0,0,3,786,0,4,790,0
53,276,29,152,0,2,278,1,0,0,0,3,741,0,5,746,0
54,262,37,116,3,5,412,3,0,1,1,1,841,0,5,846,0
55,247,44,116,1,1,463,8,1,0,0,1,882,0,5,887,0
56,293,30,58,0,5,290,2,0,0,0,0,678,0,5,683,0
57,133,17,69,0,2,203,0,1,1,0,4,430,0,2,432,0
58,164,10,29,0,2,153,0,0,0,0,1,359,0,3,362,0
59,280,26,32,1,0,130,0,0,0,0,0,469,0,2,471,0
60,233,26,26,0,0,163,1,0,0,0,0,449,0,4,453,0
61,322,12,29,2,1,168,1,0,0,0,1,536,0,3,539,0
62,227,23,66,0,2,218,3,2,0,1,1,543,0,2,545,0
63,172,17,92,0,1,197,2,0,1,1,2,485,0,1,486,0
64,383,22,48,2,5,300,1,0,0,0,2,763,0,2,765,0
65,333,26,51,2,2,336,2,0,1,0,3,756,0,4,760,0
66,483,26,48,1,3,245,5,1,0,0,2,814,0,4,818,0
67,370,16,49,0,1,245,1,1,0,0,1,684,0,3,687,0
68,282,20,44,0,2,265,1,0,0,2,0,616,0,5,621,1
69,231,15,44,1,0,248,2,1,1,0,2,545,0,3,548,0
70,231,15,125,0,2,354,0,0,1,1,0,729,0,5,734,0
71,166,16,85,1,0,229,2,1,1,0,1,502,0,1,503,0
72,97,6,43,0,1,142,2,0,0,0,3,294,0,2,296,0
73,157,21,158,2,0,274,5,0,0,1,3,621,0,0,621,0
74,240,9,124,0,0,252,2,1,1,0,4,633,0,3,636,0
75,186,23,65,0,0,235,3,1,1,0,0,514,0,5,519,0
76,159,12,77,0,0,276,0,1,2,0,0,527,0,4,531,1
77,208,19,98,0,0,282,4,0,0,0,7,618,0,5,623,0
78,182,18,109,2,0,322,0,0,0,0,7,640,0,9,649,0
79,216,21,115,1,1,286,3,0,2,0,5,650,0,6,656,0
80,236,30,205,1,2,367,2,1,1,0,3,848,0,10,858,0
81,137,19,74,0,2,219,0,0,0,0,3,454,0,1,455,0
82,186,16,79,0,1,293,3,0,1,0,1,580,0,6,586,0
83,109,26,77,0,0,201,2,1,0,0,3,419,0,4,423,0
84,179,15,87,0,1,252,5,1,0,0,16,556,0,2,558,0
85,113,11,113,0,1,148,0,0,0,0,2,388,0,1,389,0
86,166,34,169,1,2,251,0,0,0,1,10,634,0,5,639,0
87,219,23,106,1,1,259,1,1,0,0,6,617,0,4,621,0
88,170,33,66,1,1,275,3,0,0,1,32,582,0,3,585,0
89,153,32,92,0,1,294,4,2,0,1,5,584,0,0,584,0
90,271,14,65,3,2,291,2,1,0,0,3,652,0,0,652,1
91,247,35,118,2,2,289,2,1,1,0,9,706,0,6,712,0
92,275,35,93,3,4,361,4,2,0,3,26,806,0,6,812,0
93,262,34,124,0,2,293,2,0,0,0,14,731,0,3,734,0
94,236,24,88,1,1,324,2,2,0,0,6,684,0,7,691,0
95,154,14,123,0,5,426,6,1,2,5,6,742,0,3,745,0
96,130,14,33,2,1,149,0,0,1,0,4,334,0,2,336,0
97,252,24,80,0,2,352,1,0,0,1,7,719,0,4,723,0
98,218,36,75,1,1,384,1,3,0,1,5,725,0,9,734,1
99,287,21,71,0,6,293,1,0,2,1,5,687,0,4,691,0
100,134,10,40,1,3,225,2,1,0,0,0,416,0,1,417,0
101,229,35,71,1,0,240,4,0,2,0,2,584,0,3,587,0
102,240,32,106,1,3,258,4,1,0,0,1,646,0,5,651,0
103,227,27,116,1,3,214,1,0,0,0,6,595,0,9,604,0
104,178,28,130,0,0,280,3,0,0,0,3,622,0,3,625,0
105,216,19,96,0,0,262,1,1,0,0,4,599,0,6,605,0
106,173,22,98,0,0,222,2,0,1,0,5,523,0,5,528,0
107,238,32,95,2,3,241,3,0,0,0,0,614,0,3,617,0
108,254,39,130,0,4,306,3,0,1,1,7,745,0,1,746,0
109,473,18,29,2,1,287,2,0,0,1,1,814,0,6,820,0
110,405,24,56,0,2,346,3,3,0,0,4,843,0,5,848,0
111,282,15,39,1,1,292,2,1,0,0,0,633,0,7,640,0
112,149,24,271,3,4,427,8,1,1,2,0,890,0,6,896,0
113,211,39,132,0,5,322,6,1,0,2,4,722,0,4,726,0
114,233,40,144,1,3,323,2,1,0,0,2,749,0,3,752,0
115,316,39,115,2,6,283,1,2,1,0,1,766,0,4,770,0
116,245,30,78,1,0,353,2,1,0,1,1,712,0,10,722,0
117,190,29,96,1,0,258,0,1,1,0,1,577,0,3,580,0
118,154,22,71,0,4,187,0,0,1,0,3,442,0,4,446,0
119,203,42,72,0,1,274,2,0,1,0,1,596,0,8,604,0
120,174,17,73,2,3,394,5,0,0,1,0,669,0,2,671,0
121,201,18,61,0,2,223,1,1,0,0,0,507,0,1,508,0
122,174,37,82,1,2,295,5,0,2,0,3,601,0,2,603,0
123,277,39,104,0,1,414,3,0,0,0,0,838,0,6,844,0
124,224,40,105,1,2,428,9,1,1,0,1,812,0,5,817,0
125,185,27,236,0,0,330,1,0,0,0,0,779,0,3,782,0
126,133,13,81,0,1,241,0,0,0,0,4,473,0,4,477,0
127,145,19,188,1,1,285,2,0,1,0,0,642,0,4,646,0
128,148,21,157,0,1,312,3,0,1,0,2,645,0,9,654,0
129,142,24,158,0,2,234,1,1,0,0,2,564,0,5,569,0
130,306,15,56,1,3,189,2,0,0,0,2,574,0,3,577,0
131,220,18,64,2,0,192,1,0,0,0,5,502,0,3,505,1
132,250,42,76,0,3,467,4,2,0,0,9,853,0,4,857,0
133,204,16,68,2,4,320,3,0,2,0,4,623,0,3,626,0
134,243,22,49,0,0,192,0,0,0,0,2,508,0,1,509,0
135,183,24,73,0,1,228,0,0,2,0,0,511,0,3,514,0
136,166,19,70,0,1,243,1,0,1,0,0,501,0,2,503,1
137,192,23,100,0,5,320,3,1,2,0,3,649,0,9,658,0
138,140,12,94,3,0,379,2,1,0,0,2,633,0,4,637,0
139,326,32,93,0,1,349,4,0,2,0,0,807,0,2,809,0
140,231,28,53,0,4,284,3,0,0,0,3,606,0,2,608,0
141,256,48,105,0,10,298,3,1,1,0,1,723,0,5,728,0
142,194,19,23,1,2,244,3,1,2,0,5,494,0,0,494,0
143,135,23,18,0,1,221,1,0,0,0,2,401,0,1,402,0
144,262,33,15,1,2,312,2,2,1,0,0,630,0,3,633,0
145,168,28,124,0,0,320,3,1,0,0,4,648,0,3,651,0
146,233,32,121,2,2,330,6,0,0,2,1,729,0,1,730,0
147,202,39,91,1,2,437,5,0,0,4,0,781,0,8,789,0
148,193,21,80,2,0,243,3,0,1,1,2,546,0,3,549,0
149,239,29,89,0,0,253,0,0,0,1,2,613,0,1,614,0
150,307,51,104,0,1,448,3,1,1,0,1,917,0,4,921,0
151,107,34,68,3,2,257,5,1,0,1,1,479,0,0,479,0
152,184,22,77,2,1,249,4,1,0,0,1,541,0,1,542,0
153,271,32,78,3,3,406,0,0,1,0,2,796,0,2,798,0
154,141,21,30,0,0,289,2,0,0,0,1,484,0,2,486,0
155,174,18,57,0,2,350,5,1,1,0,1,609,0,1,610,0
156,284,54,75,0,2,366,4,0,2,0,3,790,0,1,791,0
157,248,38,77,0,1,320,0,0,0,1,2,687,0,2,689,0
158,144,15,43,0,2,129,5,0,0,0,2,340,0,5,345,0
159,161,14,56,0,0,191,1,0,0,0,0,423,0,3,426,0
160,310,56,106,3,2,275,4,1,1,0,3,761,0,6,767,0
161,108,14,42,0,0,91,0,0,0,0,1,256,0,2,258,0
162,286,37,114,2,1,295,3,1,0,0,3,742,0,2,744,0
163,149,18,54,1,0,165,2,0,1,0,1,391,0,3,394,0
164,238,30,76,1,1,186,1,1,0,0,1,535,0,5,540,0
165,137,14,75,0,1,104,3,0,0,0,0,334,0,1,335,0
166,182,12,46,0,1,147,3,0,0,0,1,392,0,4,396,0
167,66,10,12,0,0,94,0,0,0,0,0,182,0,2,184,0
168,226,38,100,0,1,317,7,1,0,2,1,693,0,5,698,0
169,215,44,144,1,3,397,5,1,2,2,5,819,0,12,831,0
170,106,26,48,0,1,163,1,1,0,0,1,347,0,3,350,0
171,167,27,90,0,1,178,3,2,1,3,3,475,0,1,476,0
172,211,18,82,3,2,285,2,0,1,0,1,605,0,2,607,0
173,220,27,82,0,3,327,4,0,1,0,2,666,0,1,667,0
174,220,47,90,0,1,286,3,2,0,0,1,650,0,5,655,0
175,268,30,123,6,0,365,3,2,0,1,3,801,0,8,809,0
176,219,45,119,4,2,285,4,3,3,2,4,690,0,1,691,0
177,189,23,55,0,2,121,2,2,0,0,7,401,0,3,404,0
178,207,28,112,1,0,304,1,2,0,0,2,657,0,7,664,0
179,205,31,109,1,2,296,4,0,1,1,4,654,0,1,655,0
180,160,23,74,0,2,218,1,0,0,1,1,480,0,2,482,0
181,186,17,47,1,2,147,0,1,0,1,0,402,0,5,407,0
182,317,45,80,0,7,338,5,2,2,0,1,797,0,7,804,0
183,260,44,112,2,3,234,0,2,1,0,4,662,0,8,670,0
184,242,19,79,0,2,214,2,0,2,0,2,562,0,3,565,0
185,174,22,108,1,0,205,2,0,1,0,0,513,0,5,518,0
186,256,32,73,1,6,343,2,2,0,2,4,721,0,5,726,0
187,233,29,60,0,1,184,1,0,0,1,2,511,0,4,515,0
188,220,21,120,1,3,243,3,1,1,0,1,614,0,7,621,0
189,145,20,45,0,0,128,2,0,0,0,4,344,0,0,344,0
190,230,28,53,0,0,207,2,1,0,0,1,522,0,5,527,0
191,260,38,89,1,1,238,1,0,0,0,5,633,0,9,642,0
192,245,39,81,0,2,218,3,1,1,1,2,593,0,4,597,0
193,139,21,68,0,1,211,6,0,0,0,2,448,0,3,451,0
194,137,15,51,1,2,175,1,0,0,0,4,386,0,7,393,0
195,279,36,95,0,1,191,5,0,0,0,4,611,0,7,618,0
196,121,21,46,0,0,153,0,0,1,0,3,345,0,4,349,0
197,288,27,73,0,1,259,1,1,0,0,1,651,0,8,659,0
198,129,22,45,0,1,163,3,0,2,0,2,367,0,4,371,0
199,233,34,88,1,3,178,2,1,1,0,0,541,0,7,548,0
200,287,29,76,0,0,293,0,0,1,1,3,690,0,11,701,0
201,261,24,75,0,0,208,2,0,0,0,0,570,0,12,582,0
202,234,42,81,2,0,214,3,1,0,0,2,579,0,9,588,0
203,209,25,82,0,3,293,5,0,0,0,1,618,0,4,622,0
204,146,22,13,0,0,122,0,0,0,0,2,305,0,4,309,0
205,294,26,58,2,0,173,3,0,1,0,0,557,0,2,559,0
206,287,31,62,1,1,221,3,1,0,2,2,611,0,6,617,0
207,216,20,47,0,2,164,2,1,0,0,1,453,0,7,460,0
208,196,23,69,0,0,206,7,1,0,0,1,503,0,5,508,0
209,195,23,74,1,0,201,2,1,0,0,1,498,0,4,502,0
210,202,13,75,1,0,194,0,1,0,0,4,490,0,2,492,0
211,202,24,84,1,0,181,0,0,0,0,0,492,0,10,502,0
212,230,40,104,2,1,218,1,1,1,1,2,601,0,0,601,0
213,178,20,74,0,5,240,1,1,0,0,4,523,0,1,524,0
214,286,36,66,0,1,272,3,2,0,0,3,669,0,2,671,0
215,248,29,100,1,1,271,4,0,1,1,2,658,0,0,658,0
216,324,33,113,1,1,346,5,0,0,1,4,828,0,6,834,0
217,255,31,73,3,1,312,5,0,0,0,4,684,0,3,687,0
218,301,62,104,0,0,419,3,1,0,1,2,893,0,6,899,1
219,254,24,106,0,2,363,5,0,0,0,1,755,0,5,760,0
220,299,74,108,0,0,328,1,1,0,0,0,811,0,5,816,0
221,238,52,104,2,2,287,2,2,0,1,1,691,0,3,694,0
222,210,55,78,0,1,236,2,0,1,0,3,586,0,8,594,0
223,153,33,64,1,1,188,2,0,0,0,1,443,0,2,445,0
224,157,32,61,0,0,201,1,1,0,0,2,455,0,5,460,0
225,177,37,93,0,0,253,0,0,2,1,1,564,0,7,571,0
226,209,54,59,1,1,285,2,1,0,2,0,614,0,3,617,0
227,176,54,202,2,3,509,2,1,1,2,2,954,0,1,955,0
228,129,35,65,0,3,342,5,0,0,0,1,580,0,4,584,0
229,254,42,47,5,5,281,2,2,1,0,2,641,0,5,646,0
230,307,59,116,1,2,417,7,0,0,0,2,911,0,1,912,0
231,165,26,72,1,1,339,3,0,0,1,0,608,0,1,609,0
232,196,16,82,0,1,298,1,0,0,2,0,596,0,2,598,0
233,241,40,103,1,3,453,4,0,0,1,4,850,0,5,855,0
234,172,32,66,1,4,346,3,0,0,1,0,625,0,1,626,0
235,196,42,106,1,5,408,2,1,0,1,3,765,0,3,768,0
236,187,31,63,3,0,313,1,0,0,0,5,603,0,2,605,1
237,265,49,159,0,1,267,2,0,1,0,25,769,0,2,771,0
238,300,39,105,3,1,282,2,2,0,0,2,736,0,6,742,0
239,181,24,82,1,1,278,0,1,0,0,2,570,0,1,571,0
240,167,32,68,0,1,162,5,0,0,0,2,437,0,4,441,0
241,273,34,146,0,1,244,0,0,0,0,0,698,0,10,708,0
242,118,20,65,1,0,193,3,1,0,0,2,403,0,1,404,0
243,248,48,141,1,3,390,1,0,0,0,10,842,0,7,849,0
244,239,43,83,2,0,431,5,1,3,0,0,807,0,4,811,0
245,153,27,80,1,3,329,1,0,0,0,6,600,0,2,602,0
246,180,29,99,2,3,271,0,0,0,1,2,587,0,4,591,0
247,186,24,47,0,1,200,0,0,1,1,0,460,0,1,461,0
248,316,38,89,1,2,291,3,0,1,0,6,747,0,5,752,0
249,206,25,72,0,1,239,3,0,0,0,3,549,0,3,552,0
250,335,52,124,1,1,312,0,1,1,0,3,830,0,8,838,0
251,350,56,72,1,0,318,0,0,0,0,3,800,0,10,810,0
252,218,47,63,2,0,315,2,0,0,1,6,654,0,2,656,0
253,238,37,71,1,3,227,2,0,2,0,1,582,0,11,593,0
254,253,18,50,3,1,230,2,0,1,1,2,561,0,2,563,0
255,165,21,82,1,1,189,1,1,0,1,2,464,0,1,465,0
256,331,46,160,0,1,360,6,0,1,0,4,909,0,4,913,0
257,123,21,88,2,0,256,2,0,0,2,1,495,0,1,496,0
258,200,42,38,1,2,213,1,0,0,0,1,498,0,2,500,0
259,217,38,55,0,0,275,0,0,0,0,1,586,0,5,591,0
260,223,21,80,3,3,440,8,0,2,1,2,783,0,1,784,0
261,212,26,95,0,1,287,1,1,1,0,0,624,0,5,629,0
262,198,41,120,2,1,251,0,0,0,0,5,618,0,7,625,0
263,126,19,118,3,1,238,2,1,1,0,3,512,0,2,514,0
264,201,22,132,1,3,290,3,0,0,1,5,658,0,3,661,0
265,333,39,156,0,1,346,1,0,2,2,6,886,0,6,892,0
266,210,28,45,2,1,297,4,0,2,1,2,592,0,2,594,0
267,260,26,53,1,0,360,9,1,0,0,0,710,0,0,710,0
268,301,34,93,0,1,346,2,0,1,0,3,781,0,8,789,0
269,303,24,154,3,5,363,5,0,1,1,7,866,0,6,872,0
270,378,37,95,1,2,287,5,2,1,2,2,812,0,10,822,0
271,204,46,105,3,0,405,10,0,1,2,3,779,0,6,785,0
272,354,52,153,7,3,390,10,1,3,1,5,979,0,2,981,0
273,433,20,106,1,2,192,2,0,0,0,2,758,0,3,761,0
274,346,52,218,2,6,432,9,0,2,1,2,1070,0,6,1076,0
275,353,19,142,2,2,210,3,0,0,0,1,732,0,4,736,0
276,504,30,99,0,1,192,1,0,2,1,6,836,0,3,839,0
277,216,22,57,1,1,223,1,0,0,0,1,522,0,1,523,0
278,177,17,55,0,4,160,3,0,0,0,1,417,0,4,421,0
279,217,22,43,0,1,323,2,1,0,0,1,610,0,7,617,0
280,168,23,43,0,0,175,1,0,1,0,0,411,0,1,412,0
281,242,45,54,1,2,247,4,0,0,1,1,597,0,4,601,0
282,138,14,49,0,0,148,2,1,0,0,2,354,0,4,358,0
283,211,36,68,0,0,208,1,0,0,0,0,524,0,4,528,0
284,172,36,47,1,0,205,1,0,0,0,1,463,0,2,465,0
285,220,41,73,0,0,253,3,0,0,0,0,590,0,5,595,0
286,286,39,66,1,2,260,5,0,1,1,1,662,0,5,667,0
287,303,41,79,0,4,317,3,1,3,0,2,753,0,5,758,0
288,290,55,68,0,3,263,1,1,0,0,2,683,0,6,689,0
289,216,30,60,1,0,258,0,0,0,0,0,565,0,4,569,0
290,249,43,67,1,1,262,3,0,0,0,0,626,0,5,631,0
291,255,45,65,0,0,293,1,0,0,1,2,662,0,7,669,0
292,267,41,55,0,1,266,1,0,0,0,0,631,0,5,636,0
293,282,62,91,1,0,333,0,1,0,0,2,772,0,6,778,0
294,289,53,90,1,1,380,2,2,0,0,2,820,0,6,826,0
295,159,17,23,0,0,266,2,0,0,0,0,467,0,3,470,0
296,241,44,56,1,8,352,2,1,0,1,1,707,0,3,710,0
297,303,69,145,2,5,425,4,1,0,2,2,958,0,2,960,0
298,179,27,49,0,1,190,1,0,0,0,1,448,0,6,454,0
299,164,39,42,0,1,248,3,1,1,1,0,500,0,0,500,0
300,387,52,61,0,3,275,1,0,0,0,1,780,0,3,783,0
301,293,53,105,0,2,344,2,0,1,2,4,806,0,8,814,1
302,211,38,57,0,0,178,2,0,1,0,1,488,0,6,494,0
303,200,18,26,0,0,233,3,0,0,0,2,482,0,2,484,0
304,191,36,61,0,0,186,2,1,1,0,2,480,0,2,482,0
305,333,52,101,1,1,299,0,1,1,0,1,790,0,7,797,0
306,293,54,84,0,0,265,2,0,1,1,3,703,0,7,710,0
307,234,36,60,0,0,222,0,0,1,0,2,555,0,4,559,0
308,292,36,108,0,1,277,1,0,0,0,1,716,0,4,720,0
309,315,39,65,1,2,241,2,1,0,0,0,666,0,2,668,0
310,199,18,76,0,0,169,1,0,1,0,6,470,0,11,481,0
311,227,32,40,0,2,209,4,0,0,0,3,517,0,4,521,0
