Polling Station No,KIRUTHIGA THANGAPANDI,SATHYADEVI. T.,RAJANCHELLAPPA. V.V.,CHELLADURAI. R,SETHURAMAN. A.,SYED IBRAHIM. M.,THANAPANDIAN. T.,NIRMALKUMAR. R.,MOOKKAYEE. C.,RENGANATHAN DORAISAMY,ARUMUGAM. G.,UKKRA PANDIAN. S.,POUNRAJ. N.,RAJ. P.,VALLARASAN. K.,Total Valid Votes,Rejected Votes,NOTA,Total,Tendered Votes
1,235,52,247,0,0,0,6,210,0,1,0,0,0,3,0,754,0,3,757,0
2,252,88,200,0,1,0,2,254,1,1,1,1,1,0,2,804,0,0,804,0
3,352,18,70,0,0,0,0,136,0,0,0,0,0,1,0,577,0,1,578,0
4,304,67,149,0,1,1,3,393,2,2,0,0,0,2,0,924,0,3,927,0
5,131,28,73,0,1,0,3,149,0,1,0,1,0,0,0,387,0,0,387,0
6,236,50,131,0,0,0,5,295,3,0,0,1,0,3,0,724,0,1,725,0
7,155,30,99,1,0,0,2,152,0,0,0,0,0,1,0,440,0,1,441,0
8,95,21,76,3,0,0,2,116,0,0,1,0,1,0,0,315,0,0,315,0
9,151,37,118,0,2,1,7,266,1,0,0,1,0,0,0,584,0,1,585,0
10,168,34,111,0,0,0,3,280,1,0,0,1,1,1,1,601,0,5,606,0
11,200,31,104,1,1,0,1,242,0,1,0,0,0,1,0,582,0,4,586,0
12,220,31,149,1,1,1,7,251,1,0,0,0,0,1,0,663,0,2,665,0
13,228,67,95,0,2,0,2,297,0,0,0,0,0,0,0,691,0,0,691,0
14,107,24,37,0,0,2,1,160,0,0,0,0,0,0,0,331,0,3,334,0
15,150,23,43,0,1,0,3,176,0,0,1,0,0,0,0,397,0,0,397,0
16,228,53,105,2,0,0,4,316,0,1,0,0,0,0,0,709,0,4,713,0
17,166,39,240,1,0,0,0,222,1,0,1,0,1,0,0,671,0,4,675,0
18,166,37,124,0,0,0,0,241,1,0,0,0,0,0,0,569,0,6,575,0
19,145,36,132,0,1,0,0,250,1,0,1,0,0,0,0,566,0,2,568,0
20,130,50,111,1,0,0,1,256,0,0,0,0,0,0,0,549,0,2,551,0
21,148,30,115,1,1,0,1,154,1,0,0,0,0,1,0,452,0,1,453,0
22,358,33,171,1,0,0,2,325,1,1,0,0,0,1,0,893,0,5,898,0
23,199,45,170,0,1,0,7,297,1,0,1,1,0,1,2,725,0,4,729,0
24,249,43,172,0,0,0,2,347,1,0,1,0,0,1,0,816,0,3,819,0
25,150,47,156,0,2,0,1,269,2,0,0,0,0,0,0,627,0,2,629,0
26,214,35,104,0,0,0,4,164,0,0,0,0,1,1,0,523,0,2,525,0
27,263,47,84,0,1,1,4,212,1,0,0,0,0,0,0,613,0,5,618,0
28,236,39,115,0,1,0,0,258,0,1,0,0,0,2,0,652,0,4,656,0
29,221,52,93,0,1,0,6,309,0,0,0,0,0,0,0,682,0,3,685,0
30,136,31,71,0,0,0,0,120,1,0,0,0,0,0,0,359,0,1,360,0
31,231,50,91,1,1,0,2,284,0,0,0,1,0,1,1,663,0,7,670,0
32,217,32,110,0,0,0,3,183,0,0,0,1,0,0,0,546,0,5,551,0
33,309,74,171,0,0,1,2,435,0,1,1,1,0,1,1,997,0,2,999,0
34,184,29,98,2,1,2,2,215,0,0,0,0,0,1,0,534,0,2,536,0
35,150,64,81,0,0,0,7,186,0,1,0,3,0,0,0,492,0,1,493,0
36,273,45,147,0,0,0,5,240,1,0,0,1,0,2,0,714,0,2,716,0
37,135,42,154,1,1,0,2,321,0,0,0,5,0,0,0,661,0,1,662,0
38,264,69,165,0,0,0,17,277,0,0,0,0,1,0,1,794,0,1,795,0
39,158,27,122,0,0,0,9,113,0,0,0,0,0,0,0,429,0,2,431,0
40,365,68,245,1,0,0,14,340,1,0,1,0,1,1,0,1037,0,1,1038,0
41,258,63,144,2,0,0,3,442,2,0,0,1,0,1,2,918,0,6,924,0
42,178,22,217,2,1,0,1,121,1,0,0,0,1,1,1,546,0,1,547,0
43,143,38,141,0,0,0,0,148,1,0,0,1,0,0,1,473,0,2,475,0
44,216,66,138,2,0,0,4,206,0,2,1,0,0,1,0,636,0,4,640,0
45,239,53,166,1,0,0,4,165,2,0,0,0,0,1,0,631,0,3,634,0
46,324,35,211,0,0,1,6,371,0,0,1,0,0,0,0,949,0,2,951,0
47,214,28,87,1,0,0,9,238,0,0,0,0,0,0,0,577,0,3,580,0
48,308,56,102,0,1,0,2,428,0,0,0,0,0,0,2,899,0,4,903,0
49,137,36,149,0,0,0,3,209,1,0,0,0,0,1,0,536,0,0,536,0
50,385,55,148,0,1,1,7,354,0,1,1,0,0,5,1,959,0,2,961,0
51,311,48,132,0,0,0,3,330,0,1,0,2,0,0,1,828,0,2,830,0
52,271,69,127,0,2,0,1,366,2,0,1,0,0,0,1,840,0,5,845,0
53,264,40,195,0,1,1,10,279,1,1,0,0,0,1,0,793,0,4,797,0
54,291,37,189,2,0,0,9,326,0,1,0,0,0,0,0,855,0,1,856,0
55,213,47,256,0,0,0,15,320,0,0,0,0,0,0,0,851,0,6,857,0
56,234,50,218,0,2,0,5,336,1,1,0,1,0,1,0,849,0,3,852,0
57,273,49,185,1,0,2,7,331,0,0,1,0,0,1,2,852,0,2,854,0
58,199,42,131,0,1,0,3,278,0,0,0,2,0,0,0,656,0,4,660,0
59,216,45,113,0,2,0,2,275,0,0,0,0,0,1,0,654,0,6,660,0
60,347,45,128,1,0,0,5,378,1,0,0,0,0,1,0,906,0,5,911,0
61,249,57,133,0,2,1,2,335,0,0,0,0,0,1,0,780,0,7,787,0
62,229,33,151,0,1,0,3,374,1,0,0,0,1,1,0,794,0,2,796,0
63,223,37,127,0,4,0,1,322,0,0,0,0,0,1,0,715,0,7,722,0
64,228,44,123,2,1,0,3,433,1,0,1,0,0,2,1,839,0,2,841,0
65,201,59,80,0,0,0,4,402,0,0,0,0,0,1,1,748,0,2,750,0
66,233,45,155,0,4,0,3,411,0,1,2,1,1,1,0,857,0,4,861,0
67,586,15,67,0,0,2,3,155,0,0,0,0,0,0,0,828,0,6,834,0
68,305,50,151,2,0,3,2,411,0,0,0,0,0,0,0,924,0,6,930,0
69,127,37,86,0,0,1,3,190,0,0,0,0,0,0,0,444,0,1,445,0
70,257,18,112,1,1,0,2,255,0,0,0,1,0,1,0,648,0,1,649,0
71,249,34,90,1,0,1,5,202,1,0,0,0,1,0,0,584,0,1,585,0
72,305,62,71,1,0,0,5,442,0,0,0,0,0,0,1,887,0,1,888,0
73,359,39,103,0,5,2,6,289,0,0,0,1,1,1,1,807,0,0,807,0
74,348,33,83,1,0,1,1,356,1,1,0,0,0,1,2,828,0,2,830,0
75,178,21,72,1,0,1,0,172,0,0,0,1,0,0,0,446,0,4,450,0
76,155,42,151,1,1,1,3,268,0,0,0,0,0,0,0,622,0,9,631,0
77,208,44,159,0,0,0,1,273,0,1,0,0,0,0,1,687,0,7,694,0
78,176,34,113,0,1,0,0,314,0,0,0,0,1,0,0,639,0,4,643,0
79,196,47,124,1,0,0,2,326,1,0,0,0,0,1,0,698,0,12,710,0
80,188,24,168,0,0,0,2,237,0,0,1,0,1,0,1,622,0,5,627,0
81,169,45,142,0,0,1,2,285,0,2,0,0,0,0,0,646,0,2,648,0
82,147,40,175,2,2,0,0,309,2,0,0,0,0,0,0,677,0,9,686,0
83,156,20,175,0,1,0,2,356,0,0,0,0,0,1,0,711,0,3,714,0
84,161,34,142,1,1,0,4,380,0,0,0,0,0,2,0,725,0,4,729,0
85,200,39,162,1,3,1,1,317,0,0,0,0,0,2,0,726,0,3,729,0
86,144,21,186,0,1,1,2,436,0,0,1,0,0,1,0,793,0,1,794,0
87,180,33,152,1,0,0,2,296,1,0,0,0,0,0,0,665,0,2,667,0
88,123,25,99,0,0,1,2,299,0,0,1,1,0,2,0,553,0,0,553,0
89,129,15,184,0,0,1,1,308,1,0,0,0,0,1,0,640,0,3,643,0
90,127,25,107,0,0,1,3,240,0,0,0,0,0,0,0,503,0,1,504,0
91,195,35,134,1,0,0,1,293,2,1,1,0,0,0,2,665,0,5,670,0
92,221,34,116,0,0,0,3,342,2,0,1,0,0,0,1,720,0,4,724,0
93,209,28,102,0,3,0,5,269,2,0,0,0,0,0,0,618,0,2,620,0
94,146,33,74,0,0,0,2,224,2,1,2,0,0,1,0,485,0,3,488,0
95,145,23,67,1,1,0,1,214,0,0,0,0,0,0,0,452,0,1,453,0
96,259,23,131,0,0,1,4,362,3,0,0,1,1,0,0,785,0,2,787,0
97,241,37,108,0,0,0,2,392,1,0,0,1,0,0,0,782,0,4,786,0
98,192,40,114,0,0,0,3,414,0,1,0,0,0,1,0,765,0,4,769,0
99,168,27,134,0,0,0,0,337,0,0,0,0,0,0,0,666,0,0,666,0
100,211,38,179,1,0,1,0,371,0,0,1,0,0,0,0,802,0,2,804,0
101,237,48,201,1,1,0,1,341,1,0,1,0,0,1,1,834,0,0,834,0
102,252,24,254,0,1,0,4,265,0,0,0,0,0,0,1,801,0,3,804,0
103,269,25,123,1,1,0,3,261,1,0,0,0,0,1,1,686,0,0,686,0
104,244,24,146,1,1,1,1,322,0,0,0,2,0,0,0,742,0,3,745,0
105,277,31,116,2,0,0,0,247,0,0,0,0,0,0,0,673,0,3,676,0
106,204,39,158,1,0,0,1,233,0,0,0,0,0,0,0,636,0,7,643,0
107,187,35,142,0,0,0,4,243,0,0,0,0,0,2,0,613,0,4,617,0
108,179,40,108,0,2,0,3,351,0,1,0,0,0,0,0,684,0,1,685,0
109,239,65,128,0,0,0,1,382,0,0,1,0,0,0,0,816,0,7,823,0
110,207,41,116,0,3,0,0,312,0,1,0,0,0,1,0,681,0,4,685,0
111,191,31,111,0,0,2,0,307,1,0,0,1,0,0,0,644,0,4,648,0
112,161,18,131,1,0,0,4,413,0,0,0,0,0,0,0,728,0,2,730,0
113,223,32,133,1,0,0,1,340,2,0,0,0,0,1,0,733,0,2,735,0
114,227,31,97,0,0,1,6,451,1,0,0,0,0,1,1,816,0,2,818,0
115,289,47,139,0,1,1,1,313,0,0,0,1,0,0,0,792,0,4,796,0
116,292,30,119,0,0,0,1,339,0,1,0,0,0,0,0,782,0,4,786,1
117,225,47,137,1,0,0,8,409,1,2,0,0,0,1,1,832,0,3,835,0
118,253,48,105,1,0,1,7,494,0,0,0,0,0,2,0,911,0,2,913,0
119,191,18,114,0,0,1,1,192,0,0,0,0,0,1,0,518,0,2,520,0
120,193,22,123,1,0,0,7,243,0,0,1,1,0,0,0,591,0,1,592,0
121,141,34,139,3,0,0,0,322,0,0,0,0,0,0,1,640,0,2,642,0
122,225,57,133,0,0,1,3,412,0,0,0,0,0,2,0,833,0,3,836,0
123,193,42,108,1,0,0,1,438,0,0,0,0,0,1,1,785,0,2,787,0
124,249,31,154,0,2,1,1,355,0,0,0,1,1,1,0,796,0,2,798,0
125,292,40,106,0,1,1,1,364,0,0,1,0,0,0,1,807,0,3,810,0
126,247,38,168,0,0,0,5,391,1,1,0,0,0,4,0,855,0,2,857,0
127,244,44,118,0,0,0,5,462,1,1,0,0,0,0,1,876,0,2,878,0
128,234,26,116,0,0,0,5,265,0,1,0,0,1,0,1,649,0,5,654,0
129,267,59,125,1,1,2,0,447,0,0,0,0,1,1,0,904,0,5,909,0
130,147,33,103,1,0,0,0,303,0,0,0,0,0,0,0,587,0,2,589,0
131,161,11,126,0,0,1,3,212,1,0,0,0,0,1,0,516,0,3,519,0
132,255,46,128,2,3,2,2,359,1,0,0,0,0,3,0,801,0,7,808,0
133,249,59,136,0,1,3,4,378,0,0,0,0,0,1,0,831,0,4,835,0
134,294,35,137,2,0,0,0,413,1,0,0,0,0,2,0,884,0,1,885,0
135,338,35,110,0,2,0,0,291,1,0,0,0,0,0,0,777,0,3,780,0
136,311,33,134,0,0,1,3,311,0,0,0,1,0,0,0,794,0,6,800,0
137,204,27,181,0,0,0,1,386,1,1,0,1,0,0,0,802,0,3,805,0
138,198,36,132,1,1,0,3,280,1,1,0,0,0,1,0,654,0,11,665,0
139,229,16,109,1,0,0,8,366,1,0,0,0,0,0,0,730,0,7,737,0
140,210,27,117,1,1,1,0,337,0,0,0,1,0,1,1,697,0,1,698,0
141,193,24,127,0,0,0,2,343,0,0,0,0,0,1,1,691,0,3,694,0
142,186,25,149,1,0,0,2,340,0,0,0,0,0,2,1,706,0,4,710,0
143,233,34,125,2,2,0,2,402,1,0,0,0,0,0,0,801,0,4,805,0
144,203,25,210,1,0,0,2,298,0,0,0,0,0,1,0,740,0,5,745,0
145,237,30,237,2,0,1,3,416,0,0,0,1,0,0,1,928,0,1,929,0
146,247,36,163,0,0,0,2,453,2,0,0,0,0,0,0,903,0,5,908,0
147,266,36,185,1,0,0,6,350,3,0,0,0,0,0,0,847,0,5,852,0
148,101,19,161,1,0,1,1,398,2,0,0,0,0,1,1,686,0,1,687,0
149,102,23,105,0,0,0,1,445,1,2,1,1,0,1,0,682,0,3,685,0
150,140,22,171,1,0,1,2,500,2,0,0,0,0,0,1,840,0,2,842,0
151,100,21,150,1,0,0,1,421,2,0,0,2,0,2,1,701,0,1,702,0
152,155,21,182,0,0,0,2,477,2,0,0,0,1,3,0,843,0,8,851,0
153,218,45,222,4,0,0,4,407,2,0,0,0,0,2,0,904,0,2,906,0
154,142,21,172,1,0,0,6,558,1,0,1,1,0,1,1,905,0,4,909,0
155,215,29,167,1,0,0,4,496,1,1,0,0,0,2,1,917,0,4,921,0
156,133,23,140,1,0,1,1,556,0,0,0,1,1,0,0,857,0,6,863,0
157,324,73,230,2,2,1,5,237,0,0,0,0,0,1,2,877,0,6,883,0
158,168,56,83,0,0,0,1,228,0,0,0,1,0,2,1,540,0,1,541,0
159,294,49,203,0,3,0,0,354,1,0,0,0,0,1,0,905,0,1,906,0
160,186,39,127,0,2,0,4,182,1,1,0,1,0,3,0,546,0,1,547,0
161,306,58,128,1,23,0,1,289,0,0,0,1,2,0,1,810,0,1,811,0
162,174,36,115,1,4,0,6,212,0,0,0,0,1,0,0,549,0,5,554,0
163,175,52,83,1,0,1,1,250,2,0,1,0,2,0,2,570,0,2,572,0
164,187,30,97,2,0,0,1,198,2,1,1,2,0,3,1,525,0,3,528,0
165,330,33,135,0,0,0,2,290,2,0,0,0,0,0,0,792,0,2,794,0
166,189,55,95,1,0,0,2,384,0,0,0,1,0,1,0,728,0,3,731,0
167,170,33,106,1,1,0,3,275,0,0,0,1,0,2,0,592,0,3,595,0
168,157,46,120,0,1,1,3,396,0,0,0,1,0,0,0,725,0,6,731,0
169,203,56,121,0,0,1,1,391,0,1,0,0,0,0,0,774,0,3,777,0
170,216,46,92,1,1,0,4,358,1,1,0,0,0,1,0,721,0,4,725,0
171,231,31,58,1,3,1,3,329,2,0,0,0,0,2,1,662,0,4,666,0
172,205,59,181,0,0,3,3,438,0,0,3,0,1,1,0,894,0,2,896,0
173,212,78,129,0,2,2,0,501,0,0,0,0,0,3,0,927,0,5,932,0
174,167,47,206,0,1,1,3,455,2,0,0,0,1,1,0,884,0,2,886,0
175,147,47,126,0,0,0,0,322,0,0,0,0,0,2,0,644,0,3,647,0
176,179,35,123,1,7,1,7,293,0,1,0,0,0,1,0,648,0,5,653,0
177,112,34,104,1,1,0,2,243,0,0,0,0,0,0,1,498,0,4,502,0
178,134,32,127,0,0,0,2,235,1,0,0,0,0,0,0,531,0,0,531,0
179,191,34,120,0,0,1,1,337,0,0,1,0,0,1,1,687,0,4,691,0
180,262,32,101,2,0,0,1,364,0,0,0,0,0,2,0,764,0,2,766,0
181,198,52,91,0,1,0,2,336,0,0,0,0,0,2,1,683,0,2,685,0
182,154,32,86,0,0,0,0,270,2,0,0,0,0,1,0,545,0,2,547,0
183,195,39,147,0,0,1,2,355,0,0,0,0,0,0,2,741,0,3,744,0
184,218,35,120,1,1,2,3,316,0,1,0,1,0,0,0,698,0,2,700,0
185,222,52,126,0,0,0,1,409,0,2,0,0,0,2,0,814,0,2,816,0
186,240,59,103,2,0,0,4,328,1,0,1,0,0,0,0,738,0,3,741,0
187,142,30,68,0,0,0,2,262,1,1,0,0,0,0,0,506,0,2,508,0
188,207,43,107,1,1,0,5,391,0,2,0,1,0,1,0,759,0,6,765,0
189,219,31,126,0,3,1,3,337,3,1,1,0,0,2,1,728,0,2,730,0
190,194,40,90,0,0,0,6,294,1,0,0,0,0,0,0,625,0,3,628,0
191,254,42,147,1,1,0,4,304,0,1,0,0,0,0,0,754,0,4,758,0
192,170,29,94,1,0,0,1,279,1,0,0,0,0,0,0,575,0,1,576,0
193,233,41,122,0,0,0,3,346,0,0,0,1,0,2,0,748,0,4,752,0
194,163,12,93,1,0,2,6,250,0,0,0,0,1,1,0,529,0,3,532,0
195,233,37,165,0,0,0,1,344,0,0,0,0,0,0,0,780,0,6,786,0
196,180,30,103,0,0,0,2,271,0,1,0,0,1,2,0,590,0,5,595,0
197,195,54,143,0,1,1,0,341,0,0,0,0,0,1,0,736,0,5,741,0
198,186,28,143,2,0,1,3,383,0,0,0,0,0,0,0,746,0,1,747,0
199,285,29,102,0,1,0,4,346,1,2,1,0,1,2,1,775,0,1,776,0
200,182,30,96,0,0,1,3,234,0,1,0,0,0,1,0,548,0,1,549,0
201,191,46,129,1,0,0,5,424,1,2,0,2,0,0,0,801,0,2,803,0
202,137,22,145,1,1,0,3,340,3,1,2,1,0,3,1,660,0,7,667,0
203,140,35,129,1,0,0,0,371,0,0,0,1,0,2,0,679,0,2,681,0
204,131,35,172,2,0,0,22,374,0,0,1,0,0,1,0,738,0,5,743,0
205,105,38,151,1,0,0,2,304,0,2,0,0,0,1,0,604,0,6,610,0
206,110,36,217,1,0,1,2,311,0,1,1,0,0,0,0,680,0,2,682,0
207,135,43,135,0,0,1,1,300,0,0,1,1,0,1,1,619,0,3,622,0
208,122,31,130,0,0,3,8,385,2,0,0,0,0,2,0,683,0,3,686,0
209,113,32,203,1,0,0,1,455,2,0,1,0,0,2,0,810,0,5,815,0
210,118,38,138,0,0,0,2,384,0,0,1,0,0,0,0,681,0,4,685,0
211,144,64,190,1,0,0,2,543,0,0,0,0,0,0,1,945,0,3,948,0
212,120,38,167,1,1,0,1,457,0,0,0,1,0,0,0,786,0,10,796,0
213,103,35,183,0,0,0,1,457,2,0,0,0,0,1,0,782,0,1,783,0
214,139,31,141,0,0,0,1,345,0,0,0,0,0,2,0,659,0,5,664,0
215,94,24,130,3,0,0,0,271,1,2,0,0,0,1,0,526,0,3,529,0
216,99,20,85,0,0,1,4,259,0,0,0,2,0,1,1,472,0,1,473,0
217,145,30,165,0,2,1,3,411,0,0,1,0,0,1,1,760,0,5,765,0
218,62,20,150,0,1,0,0,247,0,0,0,0,1,0,0,481,0,1,482,0
219,101,12,74,0,0,0,1,182,0,0,0,1,0,0,2,373,0,4,377,0
220,175,13,93,0,1,0,3,322,1,0,2,0,0,0,0,610,0,3,613,0
221,139,29,145,0,0,0,2,323,1,0,1,0,0,0,0,640,0,3,643,0
222,180,47,125,2,0,1,3,477,2,0,1,0,0,0,1,839,0,0,839,0
223,248,53,119,1,0,0,3,439,2,0,0,0,0,1,0,866,0,5,871,0
224,146,28,169,0,1,0,2,276,0,0,0,1,0,2,0,625,0,2,627,0
225,165,40,141,0,1,1,4,281,0,0,1,0,1,0,0,635,0,4,639,0
226,138,29,135,0,0,0,1,317,0,0,0,0,0,1,0,621,0,1,622,0
227,109,31,134,0,1,0,3,322,0,1,1,0,0,0,0,602,0,9,611,0
228,135,34,177,0,0,1,2,371,0,0,0,0,0,0,0,720,0,6,726,0
229,105,33,188,0,0,1,1,262,0,0,0,0,1,0,1,592,0,3,595,0
230,298,51,91,2,16,0,0,302,1,0,0,2,1,1,1,766,0,4,770,0
231,134,32,139,0,1,0,0,259,0,0,0,0,0,0,0,565,0,2,567,0
232,124,41,173,0,0,0,0,292,0,0,0,0,0,0,0,630,0,6,636,0
233,229,38,129,1,1,2,2,291,0,0,0,0,0,4,0,697,0,6,703,0
234,141,30,108,0,0,1,4,321,0,1,0,0,0,0,0,606,0,4,610,1
235,240,49,96,0,0,0,1,288,0,1,4,0,0,0,0,679,0,2,681,0
236,236,36,62,0,0,0,2,206,0,0,0,0,0,0,0,542,0,3,545,0
237,273,63,171,0,1,0,4,298,1,0,0,0,0,0,1,812,0,1,813,0
238,174,37,192,0,0,0,2,356,0,0,2,1,1,0,0,765,0,1,766,0
239,140,36,114,1,2,0,3,188,0,0,0,2,0,1,0,487,0,2,489,0
240,206,66,143,1,0,1,2,284,2,0,3,0,0,1,0,709,0,2,711,0
241,230,35,122,0,10,1,3,278,0,0,0,0,0,0,2,681,0,3,684,0
242,230,67,207,3,3,2,6,379,4,6,2,2,3,4,4,922,0,7,929,0
243,115,33,119,1,2,1,6,237,2,0,0,1,1,1,1,520,0,5,525,0
244,173,35,85,1,0,0,2,172,0,1,0,0,0,1,0,470,0,1,471,0
245,65,13,149,0,1,1,2,308,0,0,0,0,0,1,0,540,0,1,541,0
246,70,14,163,1,0,1,1,244,0,0,0,0,0,1,0,495,0,0,495,0
247,101,30,212,1,0,1,1,371,1,3,0,0,1,2,0,724,0,2,726,0
248,147,21,239,3,0,0,1,438,1,0,1,2,0,1,0,854,0,6,860,0
249,188,57,202,1,0,1,4,364,1,0,2,0,0,3,1,824,0,4,828,0
250,167,54,170,0,0,1,2,417,1,0,0,0,0,5,0,817,0,3,820,0
251,116,37,161,0,1,0,5,322,0,0,0,0,0,1,0,643,0,1,644,0
252,217,60,159,0,0,0,3,411,0,2,0,1,1,0,0,854,0,1,855,0
253,274,49,139,1,0,1,2,310,0,0,0,0,0,2,1,779,0,7,786,0
254,180,26,110,1,2,0,1,295,0,0,0,0,0,2,0,617,0,1,618,0
255,234,66,150,0,2,0,4,251,0,1,0,0,0,2,1,711,0,6,717,0
256,182,35,194,1,1,0,1,365,1,0,0,0,0,1,0,781,0,2,783,0
257,157,35,84,0,1,1,4,247,1,0,0,0,0,1,0,531,0,2,533,0
258,108,27,79,0,0,0,1,175,0,0,0,0,0,2,1,393,0,1,394,0
259,176,43,171,1,0,2,4,317,0,1,0,0,0,2,0,717,0,2,719,0
260,252,41,129,0,3,0,2,409,0,0,0,0,0,0,0,836,0,6,842,0
261,297,16,191,1,0,0,3,335,2,0,2,0,0,3,1,851,0,3,854,0
262,220,25,192,0,1,1,7,428,2,5,0,0,1,0,1,883,0,6,889,0
263,285,33,191,2,1,0,2,339,0,1,0,0,0,2,0,856,0,3,859,0
264,233,36,169,1,0,0,2,340,0,1,0,0,0,0,1,783,0,3,786,0
265,196,43,246,0,2,0,0,518,0,1,0,1,0,0,0,1007,0,4,1011,0
266,231,51,166,0,10,1,0,339,0,0,0,1,0,0,0,799,0,3,802,0
267,160,29,101,0,2,0,3,366,0,0,0,0,0,0,0,661,0,0,661,0
268,168,61,162,0,0,0,1,431,1,0,0,1,1,3,0,829,0,2,831,0
269,187,27,127,3,0,1,3,433,3,1,0,1,0,3,1,790,0,3,793,0
270,186,42,132,0,2,1,6,341,0,0,2,0,0,2,0,714,0,3,717,0
271,90,34,106,1,0,1,3,255,1,0,0,0,0,2,1,494,0,1,495,0
272,100,31,93,0,0,0,3,321,0,1,1,0,0,1,0,551,0,2,553,1
273,171,38,153,0,1,0,11,325,0,0,3,0,0,0,0,702,0,4,706,0
274,171,50,181,1,1,1,7,465,1,0,1,1,0,1,0,881,0,6,887,0
275,152,61,132,1,4,1,4,330,1,2,0,0,0,0,0,688,0,8,696,0
276,162,31,116,1,2,1,6,354,0,1,1,0,0,0,0,675,0,4,679,0
277,174,40,112,0,0,0,3,388,0,1,0,0,0,0,0,718,0,2,720,0
278,187,57,160,0,5,0,9,479,1,1,1,1,0,0,0,901,0,0,901,0
279,162,36,167,0,1,0,4,448,2,0,0,0,1,1,1,823,0,2,825,0
280,148,51,152,0,1,1,6,404,0,1,1,0,0,2,0,767,0,1,768,0
281,225,64,139,0,0,0,18,455,0,0,0,0,0,2,1,904,0,4,908,0
282,185,52,156,1,10,0,2,403,0,2,0,0,1,1,0,813,0,7,820,0
283,179,47,145,1,11,0,5,369,0,0,0,0,0,2,0,759,0,3,762,0
284,150,41,145,1,1,0,12,334,0,1,0,2,1,0,0,688,0,2,690,0
285,141,20,95,1,0,0,1,200,0,0,0,0,0,0,0,458,0,1,459,0
286,183,43,161,1,0,1,1,401,2,1,1,2,0,1,0,798,0,4,802,0
287,237,47,159,0,0,0,1,425,3,1,1,0,0,3,1,878,0,1,879,0
288,231,53,87,3,9,1,1,423,0,0,1,0,0,4,0,813,0,6,819,0
289,156,41,123,2,1,1,4,466,0,0,0,0,0,3,0,797,0,0,797,0
290,349,43,146,1,1,1,2,368,0,1,0,0,0,0,1,913,0,2,915,0
291,298,45,148,0,0,0,0,374,0,1,0,0,1,2,0,869,0,2,871,0
292,236,55,263,1,0,1,1,333,1,1,0,1,0,4,0,897,0,1,898,0
293,267,57,165,0,2,0,0,315,0,0,0,0,0,4,0,810,0,4,814,0
294,200,47,199,0,0,1,2,495,3,0,2,1,0,2,0,952,0,6,958,0
295,270,37,186,1,0,2,0,360,0,0,0,0,0,1,0,857,0,2,859,0
296,203,53,209,1,3,2,0,464,0,0,0,0,0,0,0,935,0,8,943,0
297,211,74,192,1,0,0,0,403,1,0,0,0,0,1,1,884,0,3,887,0
298,202,46,177,0,0,0,1,302,0,1,0,0,0,1,1,731,0,2,733,0
299,165,52,138,0,1,1,6,344,2,0,0,0,0,1,0,710,0,4,714,0
300,169,41,192,0,1,0,4,345,0,1,0,0,0,0,0,753,0,3,756,0
301,212,69,217,0,0,0,7,355,1,0,1,1,1,2,0,866,0,6,872,0
302,206,48,138,1,12,1,4,370,1,1,0,0,0,2,0,784,0,7,791,0
303,187,45,117,0,19,2,3,222,1,0,0,0,2,1,0,599,0,3,602,0
304,275,24,49,0,2,0,2,248,1,1,0,1,0,0,0,603,0,4,607,0
305,185,38,148,1,0,2,0,347,1,0,0,2,0,3,1,728,0,2,730,0
306,189,48,131,1,0,0,7,383,0,4,0,1,0,1,0,765,0,2,767,0
307,242,31,172,1,0,0,1,304,1,1,1,0,0,0,0,754,0,4,758,0
308,251,42,155,1,1,1,3,365,1,1,0,1,0,2,0,824,0,4,828,0
309,243,56,109,0,2,0,1,264,1,0,0,0,0,4,1,681,0,1,682,0
310,430,10,53,0,1,0,0,94,0,0,0,0,0,0,1,589,0,1,590,0
311,203,56,128,0,0,1,1,287,1,0,1,0,0,0,0,678,0,4,682,0
312,170,25,66,1,0,0,2,163,1,0,0,0,0,0,1,429,0,0,429,0
313,251,37,180,0,1,1,11,278,1,0,0,0,0,2,1,763,0,0,763,0
314,237,66,231,1,0,0,10,340,0,0,0,0,1,2,0,888,0,2,890,0
315,189,52,319,0,1,1,30,187,0,0,1,0,1,1,0,782,0,1,783,0
316,248,32,211,5,2,0,8,291,0,1,0,0,1,2,1,802,0,2,804,0
317,233,44,182,0,0,0,3,380,0,0,0,1,0,2,1,846,0,7,853,0
318,200,41,139,2,2,1,2,312,0,1,0,0,0,0,0,700,0,5,705,0
319,356,31,117,0,0,1,3,370,1,1,0,1,0,1,1,883,0,3,886,0
320,355,17,107,4,0,0,0,375,3,0,1,0,0,3,0,865,0,0,865,0
321,209,29,64,0,1,0,1,186,0,1,0,0,0,1,0,492,0,1,493,0
322,204,39,91,1,1,2,1,182,1,0,0,1,0,0,0,523,0,2,525,0
323,197,92,125,0,12,1,4,303,1,2,0,1,0,5,3,746,0,0,746,0
324,160,17,165,5,0,0,0,165,0,0,0,0,0,0,0,512,0,1,513,0
325,224,23,93,0,0,0,0,193,0,2,0,0,0,0,0,535,0,2,537,0
326,181,63,190,3,0,0,3,430,1,0,2,0,0,3,3,879,0,5,884,0
327,176,63,146,3,0,2,1,359,2,0,1,0,0,3,0,756,0,6,762,0
328,174,48,163,2,0,0,0,316,0,0,0,0,1,1,1,706,0,3,709,0
329,127,27,204,0,0,0,2,312,1,0,0,0,1,1,0,675,0,0,675,0
330,127,19,167,2,0,0,1,239,1,0,0,0,0,0,1,557,0,2,559,0
331,176,47,229,0,2,0,2,480,3,0,1,0,0,1,0,941,0,3,944,0
332,219,37,205,1,0,2,3,418,5,0,1,0,1,2,1,895,0,9,904,0
333,169,27,141,1,0,0,0,332,3,1,0,1,0,2,0,677,0,7,684,0
334,220,45,136,0,2,0,2,436,2,2,0,0,0,2,0,847,0,2,849,0
335,216,66,142,1,0,3,13,438,1,0,1,0,0,2,1,884,0,8,892,0
336,289,24,165,1,0,0,1,262,0,0,0,0,0,0,0,742,0,2,744,0
337,246,16,106,0,0,0,0,192,3,0,0,1,0,1,2,567,0,2,569,0
338,306,197,166,0,1,0,8,312,4,0,1,0,0,1,2,998,0,3,1001,0
339,209,116,130,3,1,1,4,253,3,1,0,0,1,3,4,729,0,5,734,0
340,146,18,108,0,0,0,1,105,0,0,0,0,2,2,1,383,0,10,393,0
341,317,111,225,1,1,1,7,326,2,1,0,2,1,6,1,1002,0,12,1014,0
342,409,38,241,1,3,2,3,282,2,0,0,0,2,0,0,983,0,3,986,0
343,145,37,204,3,1,0,5,483,12,1,1,2,2,4,1,901,0,1,902,0
344,189,53,154,1,0,1,4,321,1,2,0,2,0,3,2,733,0,5,738,0
345,136,35,135,0,6,0,4,544,5,1,0,1,0,1,2,870,0,6,876,0
346,176,71,206,1,4,3,4,629,3,0,2,4,0,3,1,1107,0,10,1117,0
347,332,55,230,3,0,2,4,442,4,1,0,1,1,2,1,1078,0,3,1081,0
348,211,70,179,0,4,0,2,249,1,1,1,0,0,1,0,719,0,4,723,0
349,232,24,75,2,1,0,1,208,0,0,0,2,1,4,0,550,0,3,553,0
350,234,60,120,1,1,0,2,331,0,1,0,0,0,1,0,751,0,3,754,0
351,329,29,137,0,0,1,1,258,0,1,2,2,0,3,2,765,0,5,770,0
352,254,47,159,1,0,0,1,244,0,1,0,0,0,1,2,710,0,1,711,0
