Polling Station No,KAVITHADHANDAPANI,SASIREKHA K,SIVAKUMAR V C,VEERAMANI K.C.,KALASTHIRI S,KRISHNAMOORTHY D,SANKAR T.K,SASI REKA Y,SENTHAMILSELVAN M,MUNISAMY C,KAVITHA C,KAVITHA T,KAMATCHI S,CHENRAYAN A,CHENNA KESAVAN C,THANGARAJ P,PRIYA K,MOHANRAJ R,VEERAMANI H,Total Valid Votes,Rejected Votes,NOTA,Total,Tendered Votes
1,147,18,0,295,3,0,0,0,2,204,0,0,0,2,0,1,0,0,0,672,0,0,672,0
2,158,14,2,279,2,0,1,0,2,162,0,1,1,1,0,1,1,0,0,625,0,1,626,0
3,152,10,0,268,0,0,0,1,1,207,0,1,0,0,0,2,1,0,1,644,0,2,646,0
4,174,8,0,321,2,0,0,1,0,220,2,1,0,1,0,2,1,0,0,733,0,7,740,0
5,222,8,0,249,2,0,0,0,1,218,1,0,0,0,1,0,0,0,0,702,0,0,702,0
6,154,7,0,259,0,0,0,0,0,154,0,0,0,0,0,0,0,0,0,574,0,0,574,0
7,166,11,0,239,1,0,1,2,4,175,0,0,0,0,0,1,1,0,1,602,0,0,602,0
8,204,10,0,200,0,0,1,0,6,149,0,0,0,2,1,2,1,0,0,576,0,2,578,0
9,193,15,0,258,3,3,0,2,1,208,1,0,1,1,1,3,1,0,0,691,0,1,692,0
10,102,9,2,215,3,3,0,2,2,166,2,0,3,0,3,3,0,0,1,516,0,3,519,0
11,196,19,3,398,2,2,1,1,1,208,0,0,0,1,1,1,1,0,1,836,0,1,837,0
12,143,31,3,316,5,1,2,1,0,233,0,0,1,1,2,0,0,0,0,739,0,4,743,0
13,221,27,2,415,3,0,1,1,1,273,0,0,1,0,3,0,3,0,2,953,0,5,958,0
14,207,24,3,414,3,0,1,0,2,272,3,1,1,0,2,3,2,1,0,939,0,10,949,0
15,216,30,0,336,1,0,0,1,2,354,1,0,0,1,0,0,1,0,0,943,0,1,944,0
16,101,18,0,204,0,1,1,0,1,160,1,0,0,0,0,0,1,1,1,490,0,5,495,0
17,199,38,1,346,1,1,0,2,3,244,2,1,2,0,0,2,2,0,0,844,0,2,846,0
18,179,29,1,220,2,1,0,1,2,215,0,2,0,0,1,1,5,1,0,660,0,5,665,0
19,190,27,1,229,3,0,0,2,4,418,0,0,0,0,0,1,6,2,2,885,0,2,887,0
20,78,8,0,196,2,0,0,1,0,139,1,0,1,2,0,1,1,0,1,431,0,5,436,0
21,163,28,3,152,0,0,0,0,0,148,0,0,1,1,2,0,3,0,0,501,0,1,502,0
22,188,21,1,366,1,1,0,0,0,280,2,0,1,0,0,0,4,0,0,865,0,5,870,0
23,121,17,4,310,3,0,0,1,1,250,0,0,0,0,1,0,3,1,0,712,0,5,717,0
24,105,11,1,201,2,0,0,2,1,159,1,1,0,1,0,5,0,0,1,491,0,2,493,0
25,229,14,1,178,2,0,0,0,2,189,1,0,0,0,0,4,1,0,0,621,0,1,622,0
26,175,18,0,303,4,0,0,0,3,324,0,1,1,0,0,0,0,1,0,830,0,6,836,0
27,133,16,1,264,2,0,1,2,0,205,0,0,2,0,0,3,3,1,0,633,0,5,638,0
28,154,35,0,368,1,0,0,1,2,313,0,0,0,1,0,1,1,1,0,878,0,2,880,0
29,131,24,3,417,2,1,0,3,2,285,2,2,1,1,2,0,1,0,2,879,0,1,880,0
30,129,23,1,248,0,0,0,1,0,149,0,0,0,0,0,0,0,0,0,551,0,1,552,0
31,180,26,0,329,5,0,3,0,0,345,0,1,0,1,0,1,3,0,2,896,0,7,903,0
32,116,11,1,264,3,0,0,0,2,143,1,0,0,0,0,1,0,0,0,542,0,0,542,0
33,170,19,1,246,0,0,1,0,0,178,0,0,0,0,0,1,4,0,0,620,0,3,623,0
34,171,20,1,355,1,0,0,2,1,229,0,1,0,1,0,3,2,0,0,787,0,4,791,0
35,86,26,0,206,1,0,1,1,1,202,1,0,0,1,0,0,0,0,0,526,0,0,526,0
36,206,31,0,227,0,0,1,0,2,254,0,0,0,1,1,2,0,0,0,725,0,4,729,0
37,232,17,1,358,2,0,0,0,0,298,0,0,0,2,1,0,1,0,0,912,0,2,914,0
38,187,12,2,401,3,0,0,0,0,275,0,0,1,1,0,0,0,0,0,882,0,6,888,0
39,168,12,0,205,1,0,0,1,1,191,1,0,1,0,1,0,1,1,0,584,0,6,590,0
40,211,27,0,411,1,1,1,1,3,340,2,0,1,0,0,2,1,0,1,1003,0,1,1004,0
41,385,15,3,244,0,0,0,0,1,287,0,0,0,1,0,0,2,0,0,938,0,4,942,0
42,212,21,0,366,2,0,1,2,1,289,0,1,1,0,0,0,1,0,0,897,0,3,900,0
43,190,28,2,260,0,2,0,0,0,288,2,0,1,5,0,0,4,1,0,783,0,5,788,0
44,262,19,1,330,5,0,0,1,2,341,1,0,0,5,0,1,1,0,1,970,0,4,974,0
45,178,19,2,388,8,0,0,1,1,286,0,0,0,2,0,5,0,0,0,890,0,3,893,0
46,124,16,1,193,0,0,0,1,0,104,3,0,0,0,1,1,2,0,0,446,0,0,446,0
47,220,14,1,290,1,0,0,0,0,108,0,0,0,0,0,1,0,0,0,635,0,1,636,0
48,207,30,0,277,1,0,2,0,3,224,0,0,1,0,2,2,0,0,0,749,0,1,750,0
49,120,17,1,119,0,1,1,1,0,138,2,0,0,0,0,2,2,0,1,405,0,1,406,0
50,341,20,0,373,3,0,0,0,4,213,0,0,1,1,0,0,1,0,0,957,0,2,959,0
51,183,21,0,214,2,0,0,0,3,209,0,0,0,0,2,1,1,0,0,636,0,4,640,0
52,219,22,0,249,1,1,0,0,1,244,0,0,1,0,3,0,1,0,0,742,0,4,746,0
53,261,34,2,345,1,0,0,0,4,291,0,0,0,0,0,1,1,0,0,940,0,2,942,0
54,311,21,1,298,0,0,0,2,3,295,1,0,0,0,1,4,6,1,0,944,0,4,948,0
55,188,18,1,224,0,0,0,2,3,181,1,0,1,0,0,1,0,0,0,620,0,2,622,0
56,222,35,2,242,3,0,1,0,1,210,0,0,1,2,0,4,4,1,0,728,0,4,732,0
57,220,24,2,425,3,1,0,0,1,146,1,0,0,1,1,0,6,0,0,831,0,3,834,0
58,248,16,0,310,0,0,1,0,2,213,0,2,1,0,1,2,2,0,0,798,0,2,800,0
59,154,18,0,216,0,0,0,1,1,221,1,0,1,0,0,1,0,0,0,614,0,1,615,0
60,614,11,2,57,1,1,0,0,6,190,1,1,0,2,3,0,2,1,0,892,0,0,892,0
61,167,23,0,160,0,0,2,0,1,328,0,0,0,0,1,2,2,0,0,686,0,0,686,0
62,208,28,0,232,0,0,0,0,2,238,1,0,0,0,1,1,1,0,0,712,0,3,715,0
63,286,16,5,186,2,1,0,0,2,390,0,0,1,1,0,0,0,0,0,890,0,1,891,0
64,295,26,3,249,0,1,2,4,2,285,3,0,2,0,0,3,4,0,1,880,0,2,882,0
65,194,18,0,272,0,2,0,1,1,185,0,0,0,0,3,1,0,0,0,677,0,0,677,0
66,176,32,0,262,0,1,0,1,1,342,0,0,0,0,0,2,0,0,1,818,0,1,819,0
67,240,15,0,158,0,0,0,1,2,175,0,0,0,0,0,1,2,0,0,594,0,3,597,0
68,217,37,0,234,0,2,0,1,3,333,0,1,0,0,1,2,4,1,0,836,0,5,841,0
69,356,30,1,288,3,0,0,2,4,298,0,2,0,1,1,5,2,1,0,994,0,1,995,0
70,152,23,0,389,3,0,1,0,1,238,0,0,0,0,1,3,0,0,1,812,0,1,813,0
71,265,19,3,300,1,2,0,1,1,208,0,0,0,2,0,1,1,2,2,808,0,5,813,0
72,304,41,1,298,1,0,0,2,3,274,2,1,2,0,4,4,3,0,0,940,0,4,944,0
73,102,14,0,245,2,0,0,0,0,102,0,0,0,0,0,0,0,0,1,466,0,0,466,0
74,218,25,1,369,3,0,2,2,0,236,0,1,1,0,2,2,2,0,0,864,0,1,865,0
75,178,33,1,226,0,1,0,2,3,220,0,0,0,0,2,0,1,0,0,667,0,3,670,0
76,224,32,1,382,3,2,3,1,1,294,0,0,1,2,1,1,0,0,0,948,0,4,952,0
77,330,21,3,320,2,0,0,2,1,285,1,1,0,0,2,3,4,0,1,976,0,2,978,0
78,407,20,2,346,2,2,0,2,0,170,0,1,0,1,3,4,6,1,3,970,0,4,974,0
79,260,15,1,300,3,1,0,2,0,258,0,0,0,0,1,1,0,0,0,842,0,1,843,0
80,256,21,1,370,0,1,0,0,2,228,0,0,0,0,4,0,1,1,0,885,0,2,887,0
81,174,21,1,346,0,0,0,2,1,159,0,0,0,0,1,0,0,0,0,705,0,4,709,0
82,260,22,1,436,4,0,0,0,1,175,0,0,0,0,1,0,0,0,0,900,0,1,901,0
83,207,18,3,421,0,5,0,0,2,279,1,0,0,0,1,1,0,0,0,938,0,1,939,0
84,569,14,1,152,1,0,0,0,0,216,0,0,0,1,1,0,2,0,0,957,0,0,957,0
85,202,25,1,322,0,3,0,0,1,251,0,0,0,1,0,0,2,0,0,808,0,3,811,0
86,192,19,1,360,1,0,0,2,3,184,1,0,1,2,1,3,2,0,0,772,0,2,774,0
87,132,14,1,315,1,1,1,1,1,217,0,1,1,0,0,2,3,0,0,691,0,3,694,0
88,144,23,0,406,1,0,0,3,2,263,0,1,2,1,1,1,4,1,1,854,0,2,856,0
89,256,26,1,350,0,3,0,1,1,210,2,0,0,2,2,1,3,0,0,858,0,1,859,0
90,252,29,5,338,4,0,0,2,0,279,1,0,0,1,1,3,4,0,0,919,0,2,921,0
91,329,16,1,290,1,1,0,0,2,189,0,2,3,1,3,7,3,0,1,849,0,2,851,0
92,230,13,1,160,1,0,3,0,1,169,0,1,1,1,1,3,4,0,1,590,0,3,593,0
93,88,9,1,206,0,2,0,0,0,52,0,0,2,0,0,1,2,0,0,363,0,2,365,0
94,189,7,2,287,4,0,0,1,0,173,0,0,1,1,0,1,1,0,2,669,0,2,671,0
95,308,24,2,325,3,0,1,0,1,191,2,0,2,1,3,4,11,0,2,880,0,10,890,0
96,166,33,1,349,6,0,0,1,2,132,0,1,2,0,4,6,0,0,0,703,0,1,704,0
97,156,23,11,318,3,1,1,1,5,121,1,1,0,0,3,5,0,1,0,651,0,1,652,0
98,269,35,1,332,2,2,0,2,3,287,1,0,0,0,1,4,3,0,0,942,0,8,950,0
99,202,12,0,372,1,0,0,0,1,196,0,1,0,0,1,0,0,0,0,786,0,2,788,0
100,214,16,0,220,0,0,0,3,3,207,1,1,0,1,0,0,1,0,0,667,0,3,670,0
101,246,15,1,317,0,0,0,0,0,271,1,0,1,0,0,0,1,0,2,855,0,5,860,0
102,166,14,1,228,0,2,0,1,0,193,0,0,0,0,0,0,1,0,0,606,0,3,609,0
103,114,16,3,286,2,2,0,0,0,192,1,0,0,1,1,1,0,0,0,619,0,0,619,0
104,91,16,0,300,4,0,0,2,0,147,0,0,0,1,0,0,0,0,0,561,0,0,561,0
105,198,18,0,287,1,0,0,0,1,210,0,1,1,0,0,2,2,0,1,722,0,3,725,0
106,277,15,0,351,1,0,0,0,1,174,1,0,0,0,0,0,0,0,0,820,0,3,823,0
107,184,21,1,242,1,4,1,1,0,211,1,0,0,0,1,0,0,0,0,668,0,4,672,0
108,239,24,2,372,1,0,0,0,0,294,1,0,0,0,0,0,1,0,0,934,0,1,935,0
109,133,12,1,244,2,1,1,0,0,213,0,0,0,0,0,1,0,1,0,609,0,0,609,0
110,333,29,1,211,0,2,0,1,0,273,0,0,1,0,0,2,1,0,0,854,0,5,859,0
111,283,24,1,216,0,0,0,0,1,243,0,0,0,0,0,1,1,0,1,771,0,3,774,0
112,330,36,5,318,1,0,0,2,2,302,0,0,0,0,0,1,3,0,0,1000,0,3,1003,0
113,304,14,1,255,1,2,0,1,3,272,0,0,0,1,1,1,2,0,0,858,0,1,859,0
114,250,17,1,190,2,0,1,0,0,158,0,0,0,0,0,0,0,0,0,619,0,0,619,0
115,232,10,1,130,1,3,0,1,4,243,0,0,0,0,1,0,2,0,0,628,0,0,628,0
116,141,8,0,105,0,0,0,0,0,118,0,0,0,0,1,1,1,0,0,375,0,0,375,0
117,311,22,1,264,1,1,0,0,2,297,2,1,1,0,1,0,0,1,0,905,0,3,908,0
118,97,8,1,74,0,0,1,0,0,87,0,0,0,0,0,0,0,0,0,268,0,0,268,0
119,232,10,1,244,0,0,0,0,0,223,0,0,1,0,0,0,0,0,0,711,0,2,713,0
120,193,23,2,274,0,0,0,0,0,243,0,0,2,0,0,1,0,1,0,739,0,1,740,0
121,255,25,0,285,1,0,1,0,3,247,1,0,0,0,2,0,0,0,0,820,0,1,821,0
122,238,27,0,325,0,1,0,0,1,269,0,1,1,1,0,2,0,0,0,866,0,1,867,0
123,196,37,3,411,3,4,0,1,2,311,0,0,0,1,0,0,2,1,0,972,0,2,974,0
124,205,22,2,239,1,0,0,2,0,242,0,0,0,0,0,2,1,0,0,716,0,2,718,0
125,226,13,0,272,1,0,0,0,0,155,0,0,0,0,0,1,2,1,0,671,0,0,671,0
126,283,16,0,336,1,0,0,2,0,328,0,0,1,0,0,3,2,0,0,972,0,2,974,0
127,218,25,1,253,0,1,1,3,1,279,0,0,2,0,1,0,1,0,1,787,0,4,791,0
128,199,36,2,265,0,0,0,2,2,249,1,1,0,1,0,0,0,1,0,759,0,4,763,0
129,163,16,1,227,4,0,2,1,0,292,0,2,0,1,1,4,1,4,0,719,0,1,720,0
130,211,14,1,215,0,0,0,1,2,184,0,1,0,0,0,0,0,1,0,630,0,1,631,0
131,179,8,0,159,0,2,0,1,1,176,0,1,0,0,0,1,1,1,1,531,0,2,533,0
132,197,6,1,223,2,7,0,0,1,92,0,1,0,0,1,1,1,0,0,533,0,1,534,0
133,265,21,1,233,2,4,0,2,0,336,1,0,1,0,1,2,3,0,1,873,0,1,874,0
134,254,25,0,316,1,0,1,3,2,283,1,0,2,0,2,3,2,0,0,895,0,3,898,0
135,203,20,1,226,0,1,0,1,0,182,1,0,0,0,1,1,3,0,0,640,0,4,644,0
136,169,22,2,195,0,1,0,0,0,194,0,0,0,0,0,1,2,0,0,586,0,0,586,0
137,183,21,0,287,2,0,0,1,1,228,0,0,3,0,0,1,0,0,0,727,0,3,730,0
138,163,23,1,308,0,0,1,2,1,226,0,0,1,0,1,1,2,0,0,730,0,0,730,0
139,106,18,1,365,4,0,1,0,1,207,1,0,1,0,0,5,1,1,0,712,0,2,714,0
140,128,20,2,239,0,1,0,1,1,157,0,0,0,0,0,0,0,0,1,550,0,4,554,0
141,220,17,0,320,1,0,0,1,1,227,1,0,0,0,0,0,3,1,0,792,0,3,795,0
142,166,17,1,113,0,3,0,1,0,108,0,0,0,0,1,3,2,0,0,415,0,1,416,0
143,238,32,0,281,1,1,0,0,0,171,0,0,0,0,1,1,1,0,0,727,0,3,730,0
144,271,28,3,297,3,0,0,1,0,197,0,0,1,0,2,0,2,0,0,805,0,0,805,0
145,222,22,1,331,0,0,0,0,1,166,0,0,0,1,1,1,0,0,0,746,0,4,750,0
146,223,14,0,225,1,0,0,0,0,138,0,0,0,0,2,2,1,0,1,607,0,1,608,0
147,233,19,0,244,2,0,0,2,0,139,0,1,1,0,0,0,5,1,0,647,0,2,649,0
148,261,22,0,268,1,0,0,0,1,203,4,0,1,1,0,1,1,0,0,764,0,3,767,0
149,240,22,0,353,2,0,0,1,1,206,2,0,0,1,0,0,2,0,0,830,0,1,831,0
150,161,25,4,233,1,0,0,0,3,223,1,0,0,0,0,1,2,0,0,654,0,3,657,0
151,184,28,2,153,0,2,0,1,1,195,0,0,0,0,0,1,0,0,0,567,0,1,568,0
152,243,23,2,297,1,1,2,1,2,226,0,0,0,0,0,1,0,0,0,799,0,2,801,0
153,166,11,0,336,3,1,0,0,2,242,1,0,0,0,2,3,2,0,0,769,0,3,772,0
154,68,21,0,137,1,0,2,1,1,74,1,0,0,0,0,0,0,0,0,306,0,0,306,0
155,271,34,1,342,1,0,0,2,6,329,2,0,1,0,0,3,2,0,0,994,0,4,998,0
156,192,19,1,198,3,1,1,1,2,232,0,0,1,2,2,0,3,3,0,661,0,4,665,0
157,161,28,2,278,0,0,0,0,1,251,0,0,0,1,1,1,1,1,2,728,0,4,732,0
158,235,18,2,328,1,0,1,1,1,252,0,0,1,0,0,3,4,0,0,847,0,3,850,0
159,259,16,0,288,4,0,3,0,3,210,0,1,0,1,5,5,8,0,0,803,0,2,805,0
160,262,23,1,348,1,0,0,1,0,306,1,3,0,0,3,1,7,1,0,958,0,6,964,0
161,236,21,2,416,2,1,0,2,2,177,1,0,1,0,0,1,2,0,0,864,0,5,869,0
162,209,13,0,127,0,0,0,1,2,169,1,0,1,0,2,1,2,0,0,528,0,0,528,0
163,125,22,1,177,0,1,0,1,1,180,0,0,2,0,0,0,1,0,2,513,0,0,513,0
164,228,13,0,326,0,0,0,1,3,151,0,0,0,0,1,3,1,2,0,729,0,1,730,0
165,187,14,3,321,3,2,0,1,5,356,0,0,1,0,1,2,2,1,0,899,0,1,900,0
166,208,23,2,280,1,0,2,2,2,334,1,0,0,1,3,4,3,1,2,869,0,2,871,0
167,328,20,3,406,2,0,0,2,3,234,5,0,1,0,1,1,3,0,1,1010,0,4,1014,0
168,273,8,1,161,0,0,0,1,1,110,0,0,0,0,2,1,6,0,1,565,0,1,566,0
169,89,12,1,278,0,0,0,1,0,179,1,0,1,0,1,1,0,1,0,565,0,3,568,0
170,239,23,1,222,0,2,0,2,0,217,0,0,0,0,1,1,3,0,0,711,0,0,711,0
171,134,7,1,217,2,0,0,0,1,142,2,0,0,0,0,1,2,0,1,510,0,3,513,0
172,164,54,2,255,4,0,1,1,0,246,0,0,0,0,1,0,1,0,0,729,0,3,732,0
173,176,21,3,232,4,1,1,3,1,303,5,0,2,2,1,1,4,0,0,760,0,5,765,0
174,143,16,0,194,0,0,1,1,1,219,1,0,0,0,0,2,1,0,0,579,0,2,581,0
175,272,19,2,309,2,0,0,2,1,304,0,0,0,0,1,4,0,1,0,917,0,1,918,0
176,117,33,2,327,0,0,0,5,5,297,1,0,0,0,1,1,1,0,0,790,0,3,793,0
177,358,22,2,202,0,0,1,2,1,319,1,0,0,0,2,2,0,0,0,912,0,5,917,0
178,262,12,0,184,2,0,0,1,2,181,0,0,1,0,0,3,1,0,0,649,0,0,649,0
179,224,43,1,280,2,0,0,2,0,257,4,0,1,0,0,2,1,1,0,818,0,2,820,0
180,166,18,1,159,0,0,0,1,1,138,0,1,0,1,2,3,0,0,0,491,0,1,492,0
181,186,18,0,124,1,0,0,2,1,227,0,1,0,0,0,1,1,0,0,562,0,1,563,0
182,177,9,1,125,0,0,0,0,0,159,0,0,0,0,0,0,0,0,1,472,0,2,474,0
183,234,24,2,246,1,0,0,0,6,304,2,0,1,0,0,2,1,0,0,823,0,2,825,0
184,180,30,3,221,2,0,0,0,2,278,1,0,1,0,1,0,1,0,0,720,0,1,721,0
185,128,18,1,186,1,0,0,0,1,153,1,1,0,0,1,0,0,0,2,493,0,2,495,0
186,226,29,1,323,1,1,1,2,2,284,0,0,1,0,0,0,4,1,0,876,0,4,880,0
187,185,22,0,165,0,0,0,0,0,163,0,0,1,0,0,2,1,0,1,540,0,1,541,0
188,329,24,2,379,3,2,0,2,2,216,1,0,1,0,2,3,0,0,1,967,0,2,969,0
189,178,13,0,223,2,1,0,0,0,173,2,0,0,0,0,0,1,0,0,593,0,2,595,0
190,273,28,4,355,4,0,0,0,1,198,0,0,0,0,2,0,4,2,0,871,0,7,878,0
191,188,28,0,217,1,0,0,1,0,167,0,0,0,0,1,2,3,0,0,608,0,2,610,0
192,159,29,0,277,3,0,2,1,2,199,0,3,0,0,0,0,4,0,0,679,0,2,681,0
193,285,26,2,349,1,0,0,1,1,243,0,0,0,0,1,0,1,0,0,910,0,3,913,0
194,257,12,1,175,0,0,0,1,2,139,1,0,0,0,1,0,1,0,0,590,0,1,591,0
195,209,20,0,337,0,0,0,1,2,168,0,0,1,0,0,1,2,0,1,742,0,4,746,0
196,297,20,1,237,2,1,1,1,0,253,0,0,0,2,4,2,3,1,0,825,0,5,830,0
197,220,29,0,265,0,0,0,1,0,210,1,0,2,1,0,0,0,0,0,729,0,1,730,0
198,179,18,0,219,1,1,0,0,1,173,0,0,0,1,1,1,1,0,0,596,0,3,599,0
199,202,16,0,137,1,0,0,0,2,153,0,0,0,0,0,3,2,0,1,517,0,2,519,0
200,206,18,1,152,0,0,0,0,0,75,0,0,1,0,2,1,2,0,0,458,0,1,459,0
201,207,27,0,142,1,0,0,0,2,164,0,0,0,0,2,2,1,0,0,548,0,2,550,0
202,180,32,0,216,0,0,0,0,1,195,3,0,1,1,3,1,1,0,0,634,0,1,635,0
203,190,36,1,387,3,0,0,1,4,353,2,0,0,0,1,1,2,1,3,985,0,2,987,0
204,186,18,0,425,1,0,2,2,1,255,1,0,1,0,1,1,1,0,1,896,0,4,900,0
205,226,30,3,353,1,0,1,1,1,359,2,1,1,0,0,3,3,0,0,985,0,1,986,0
206,161,32,2,335,3,0,0,1,2,157,0,0,0,0,1,0,1,0,1,696,0,0,696,0
207,321,19,1,181,0,0,0,3,1,236,0,0,0,0,1,1,3,0,0,767,0,2,769,0
208,289,24,0,337,1,0,0,1,0,183,0,1,0,0,0,3,1,0,0,840,0,4,844,0
209,76,9,0,421,1,0,0,0,0,102,0,0,2,0,0,0,1,0,0,612,0,1,613,0
210,283,29,4,430,1,0,0,2,2,280,1,1,1,0,4,2,7,0,4,1051,0,5,1056,0
211,230,37,1,401,0,0,0,0,1,356,2,0,1,1,1,2,0,0,1,1034,0,0,1034,0
212,286,18,3,388,0,0,1,1,1,243,0,0,0,0,0,0,2,0,0,943,0,1,944,0
213,72,1,0,107,2,0,0,0,0,71,0,1,0,0,0,1,1,0,0,256,0,1,257,0
214,201,17,4,483,1,1,1,1,2,139,0,0,0,0,0,0,4,0,2,856,0,3,859,0
215,137,16,1,450,4,0,0,0,0,163,0,0,0,2,0,3,2,0,0,778,0,4,782,0
216,293,24,0,301,3,1,0,0,2,266,1,0,0,0,1,2,4,3,0,901,0,3,904,0
217,146,11,2,181,1,0,1,2,2,159,0,0,0,0,1,1,0,1,0,508,0,2,510,0
218,191,18,0,236,1,0,1,0,3,164,0,0,0,0,0,2,0,2,0,618,0,3,621,0
219,234,26,1,386,2,0,0,2,0,189,3,0,1,0,1,0,1,0,0,846,0,0,846,0
220,161,11,1,275,1,0,0,1,1,147,0,0,0,0,0,1,2,0,1,602,0,2,604,0
221,270,24,2,371,2,0,0,3,2,253,0,0,0,2,0,0,2,0,1,932,0,4,936,0
222,188,26,2,418,0,0,1,0,0,181,0,0,0,0,0,0,0,0,0,816,0,3,819,0
223,315,14,0,389,1,0,0,4,0,156,1,1,0,0,0,1,1,0,0,883,0,2,885,0
224,173,21,1,317,0,0,1,0,1,156,1,0,0,0,0,0,0,0,0,671,0,4,675,0
225,153,11,0,336,0,0,2,1,2,150,0,0,0,0,1,0,3,0,0,659,0,3,662,0
226,226,20,0,245,2,0,0,0,0,98,1,1,0,0,2,0,4,1,0,600,0,5,605,0
227,233,15,2,207,1,1,1,0,1,94,2,0,0,0,0,0,0,0,0,557,0,0,557,0
228,249,31,2,354,1,0,0,0,2,204,0,0,0,0,1,1,2,0,1,848,0,1,849,0
229,353,38,2,366,0,1,1,0,0,155,0,1,0,2,1,0,4,0,1,925,0,4,929,0
230,282,15,2,354,1,0,1,1,1,249,0,1,1,0,0,0,1,0,0,909,0,1,910,0
231,183,10,1,389,3,0,0,1,1,86,0,1,0,0,0,0,0,0,0,675,0,6,681,0
232,327,15,0,413,0,0,0,1,0,216,1,0,0,0,0,2,0,0,2,977,0,1,978,0
233,237,30,2,424,1,0,1,1,1,230,0,0,0,0,1,4,0,1,0,933,0,0,933,0
234,324,34,2,252,1,0,4,0,1,310,2,0,0,0,0,1,4,0,0,935,0,0,935,0
235,346,6,1,264,1,0,0,2,0,201,1,0,0,0,1,2,4,0,0,829,0,6,835,0
236,234,14,0,242,0,0,0,0,0,191,1,0,0,0,0,1,0,0,0,683,0,4,687,0
237,167,15,1,185,2,0,0,2,1,128,0,0,1,0,1,1,0,1,0,505,0,0,505,0
238,173,14,0,263,1,0,0,0,0,182,0,0,1,0,0,0,1,0,0,635,0,0,635,0
239,211,12,1,283,0,0,0,3,3,156,0,0,0,0,1,0,6,0,0,676,0,0,676,0
240,149,12,0,152,1,2,2,3,2,264,0,1,0,0,0,1,1,0,0,590,0,5,595,0
241,178,7,2,174,4,1,0,0,2,180,0,0,1,0,0,3,2,0,0,554,0,2,556,0
242,347,41,2,204,0,0,0,0,3,313,1,1,0,0,3,1,5,0,0,921,0,3,924,0
243,242,33,0,187,0,1,0,1,1,308,0,0,0,0,0,0,1,0,0,774,0,1,775,0
244,236,18,1,153,1,0,0,2,3,185,0,1,0,0,0,0,0,0,0,600,0,2,602,0
245,194,31,2,257,1,6,0,1,1,250,0,0,0,0,2,1,0,0,0,746,0,3,749,0
246,272,31,0,257,1,1,0,0,2,286,1,1,0,0,1,3,3,0,0,859,0,10,869,0
247,300,28,2,260,1,2,0,0,1,337,0,0,0,0,1,0,0,1,0,933,0,2,935,0
248,277,19,2,183,2,1,1,5,1,280,2,0,0,0,1,2,2,2,0,780,0,2,782,0
249,209,21,1,467,2,0,1,0,0,225,1,0,0,0,1,1,1,0,0,930,0,3,933,0
250,178,14,1,301,0,0,0,0,2,186,2,1,0,0,0,0,1,0,0,686,0,2,688,0
251,126,6,3,267,4,0,0,2,5,231,0,0,1,0,0,1,0,0,0,646,0,3,649,0
252,337,16,1,112,0,0,1,1,2,214,2,0,0,0,0,0,1,0,0,687,0,1,688,0
253,363,15,1,126,1,0,0,0,2,235,1,0,0,1,0,5,1,0,0,751,0,1,752,0
254,239,20,1,214,2,1,2,2,1,296,0,0,1,0,1,0,2,0,0,782,0,2,784,0
255,138,16,1,145,3,0,0,0,0,151,0,0,0,0,0,0,0,0,0,454,0,1,455,0
256,215,25,0,209,1,0,0,0,1,201,0,0,0,0,0,1,0,0,0,653,0,4,657,0
257,309,18,1,120,0,0,0,1,1,239,0,1,0,0,0,2,1,0,0,693,0,2,695,0
258,262,12,0,147,0,0,1,0,0,156,0,0,0,0,1,0,0,0,1,580,0,5,585,0
259,218,14,0,111,0,0,0,1,0,136,0,0,0,0,0,1,0,0,0,481,0,3,484,0
260,117,16,1,111,0,1,0,3,0,164,0,0,0,0,1,0,0,0,0,414,0,2,416,0
261,123,12,1,134,0,0,0,0,0,131,0,0,0,0,0,0,1,0,1,403,0,1,404,0
262,227,36,2,216,1,0,1,0,2,363,0,2,0,0,0,2,0,1,0,853,0,7,860,0
263,217,28,1,570,3,1,0,2,2,244,1,1,0,0,2,3,1,0,0,1076,0,5,1081,0
264,220,18,0,447,5,0,0,2,2,223,0,0,0,0,1,3,1,0,0,922,0,2,924,0
265,171,12,0,224,0,0,0,1,0,134,0,0,2,0,1,0,3,1,1,550,0,2,552,0
266,237,13,0,411,1,0,0,2,0,219,0,1,1,0,0,2,0,0,0,887,0,3,890,0
267,136,14,0,282,2,0,0,0,0,129,0,0,0,1,0,1,3,0,0,568,0,1,569,0
268,311,25,0,381,3,0,0,1,0,333,0,0,0,0,0,1,2,0,1,1058,0,1,1059,0
269,163,16,2,366,1,0,0,0,3,161,0,0,1,1,2,1,0,0,0,717,0,2,719,0
270,487,6,0,161,0,1,0,0,1,237,0,0,1,0,0,1,4,0,0,899,0,0,899,0
271,228,19,1,150,1,0,0,2,2,187,0,0,0,0,0,1,2,0,0,593,0,1,594,0
272,196,15,0,247,1,1,0,0,0,193,0,0,1,0,0,1,4,0,0,659,0,2,661,0
273,114,14,0,194,0,0,0,1,0,135,1,0,1,0,1,0,0,0,0,461,0,0,461,0
274,169,13,1,233,1,0,0,2,1,253,0,0,0,0,0,1,0,0,0,674,0,2,676,0
275,232,25,0,230,0,1,0,7,2,177,0,1,2,0,0,1,2,0,0,680,0,1,681,0
276,369,19,1,277,0,0,0,2,1,341,0,0,0,0,2,1,2,0,0,1015,0,2,1017,0
277,255,5,1,242,1,0,0,0,0,159,2,0,2,0,0,1,2,0,0,670,0,5,675,0
278,261,23,1,194,0,1,0,3,2,233,0,0,1,1,0,0,2,0,0,722,0,6,728,0
279,275,11,0,135,1,0,0,2,0,165,0,0,0,0,2,2,0,0,0,593,0,1,594,0
280,137,20,0,222,1,3,0,2,0,194,1,1,0,0,1,1,3,0,0,586,0,2,588,0
281,143,22,1,208,1,1,0,1,1,136,1,0,0,0,1,0,5,0,0,521,0,0,521,0
282,200,14,0,187,0,0,0,0,0,142,0,0,0,0,0,0,1,0,0,544,0,3,547,0
283,194,14,2,185,0,0,0,0,0,150,1,0,0,0,1,2,1,0,0,550,0,4,554,0
284,129,22,0,247,0,0,0,2,0,190,0,0,0,1,0,0,0,0,2,593,0,1,594,0
285,231,26,1,277,1,0,0,0,2,185,0,0,0,0,0,0,0,0,0,723,0,3,726,0
286,146,15,1,292,0,0,0,0,0,171,0,0,1,0,1,1,2,0,0,630,0,2,632,0
287,188,26,1,219,0,0,1,0,1,164,0,0,0,1,0,0,0,0,0,601,0,2,603,0
