Polling Station No,SIVAJI PERUMAL,NEHRUJI GUNASEKARAN,K.R.JAYARAM,V.SRINIDHI,N.R.APPATHURAI,SARVESWARAN,S.S.SUNDHARAM,MURUGAN.O,K.S.SRI GIRI PRASATH,AKBAR ALI,M.ASHOK KUMAR,AYOOB RIYAS,N.RAJASEKARAN,UMA PARAMASIVAM,KARTHIK,K.KUMAR BABU,S.SATHEESH,SUBARAMANIAN.N,P.TAMILSELVI,THAHIR HUSSAIN,V.BALAMURUGAN,R.MANIKANDABRABHU,A.MOUNAKUMAR,DR.K.RAJKUMAR,RAJKUMAR.M,VASANTHI,VIJAYAKUMAR,JANANI.D,Total Valid Votes,Rejected Votes,NOTA,Total,Tendered Votes
1,3,29,279,134,0,1,0,0,235,0,1,0,0,1,0,1,0,0,0,0,0,0,0,0,0,0,0,1,685,0,5,690,0
2,0,34,191,133,4,0,0,1,332,0,0,0,0,0,0,0,1,0,1,0,0,0,1,2,0,0,0,0,700,0,3,703,0
3,1,37,228,183,0,0,1,0,318,0,1,0,1,0,1,0,0,1,0,0,0,0,1,1,0,0,0,0,774,0,5,779,0
4,1,27,204,171,3,0,0,1,346,1,0,1,0,0,0,0,0,0,1,1,1,0,0,0,0,0,0,0,758,0,2,760,0
5,3,27,170,107,0,1,1,1,180,1,0,0,0,0,0,0,0,0,0,0,1,0,1,0,0,0,0,0,493,0,3,496,0
6,1,24,283,117,0,0,0,0,212,1,0,0,1,0,0,0,0,0,0,0,0,0,0,0,2,0,0,3,644,0,3,647,0
7,2,23,153,141,3,0,1,0,167,0,1,0,0,0,0,0,0,0,0,0,0,0,0,0,0,0,0,0,491,0,7,498,0
8,3,40,193,163,1,0,0,0,313,3,0,0,0,1,0,0,2,1,0,1,1,0,0,0,0,0,0,0,722,0,5,727,0
9,1,30,218,147,1,0,1,1,222,1,0,0,0,1,0,0,0,3,0,0,1,0,0,0,0,0,0,0,627,0,3,630,0
10,0,33,109,118,0,1,0,0,251,0,0,0,0,0,0,0,0,0,1,2,0,1,0,0,2,1,0,1,520,0,0,520,0
11,0,38,233,148,1,1,2,0,318,0,0,0,0,0,0,0,2,0,3,3,1,0,0,0,1,0,0,1,752,0,4,756,0
12,1,10,67,215,0,0,1,0,252,1,0,1,1,1,0,0,0,0,1,1,0,0,0,0,0,0,0,0,552,0,1,553,0
13,1,2,79,187,0,0,1,2,257,1,2,1,2,2,0,0,0,0,1,1,2,1,0,0,2,1,1,0,546,0,1,547,0
14,0,34,216,132,0,0,1,0,377,1,1,0,0,0,1,1,0,0,0,0,0,0,0,0,0,0,0,1,765,0,3,768,0
15,1,30,173,125,1,0,0,0,260,0,0,0,0,0,0,0,0,0,1,0,1,0,0,0,1,0,0,0,593,0,3,596,0
16,4,34,209,242,1,0,1,1,374,1,0,0,0,0,1,1,0,1,0,1,0,0,0,0,0,0,0,3,874,0,5,879,0
17,2,28,194,188,0,2,1,0,319,1,0,0,0,0,0,1,2,0,1,5,1,0,0,0,0,0,0,2,747,0,2,749,0
18,0,27,116,210,1,0,2,1,235,1,0,0,0,1,0,0,1,0,0,0,0,0,0,0,0,1,0,0,596,0,5,601,0
19,0,29,155,212,1,0,0,0,192,1,0,0,1,0,0,0,0,0,1,2,1,0,0,0,0,1,0,1,597,0,3,600,0
20,2,35,259,177,1,0,0,1,240,0,0,0,0,1,0,0,0,0,0,0,0,0,0,0,0,0,0,0,716,0,6,722,0
21,1,12,113,129,1,0,1,0,165,0,0,0,0,0,0,0,0,1,0,1,0,0,1,0,0,1,0,0,426,0,4,430,0
22,1,30,149,151,1,0,1,0,202,0,0,0,0,0,0,1,0,0,0,1,0,0,0,1,0,0,0,0,538,0,4,542,0
23,1,14,99,112,1,1,1,0,199,1,0,0,0,0,0,0,3,1,2,1,0,2,0,0,1,0,1,0,440,0,7,447,0
24,0,30,121,178,0,1,0,0,158,1,0,0,0,0,1,0,0,0,0,0,0,0,0,1,0,0,0,0,491,0,4,495,0
25,0,28,198,144,1,1,3,1,225,1,1,0,0,2,0,0,0,1,1,1,0,0,0,0,0,1,1,1,611,0,9,620,0
26,1,35,143,233,0,0,1,0,314,0,0,0,0,0,0,1,0,1,1,0,1,1,0,0,1,1,0,0,734,0,3,737,0
27,1,16,184,216,1,1,0,4,477,1,0,0,0,2,0,0,1,1,2,5,1,0,1,0,3,0,0,0,917,0,5,922,0
28,0,12,68,99,0,1,1,0,165,1,0,0,0,0,0,1,0,0,0,0,1,1,0,0,0,0,0,0,350,0,2,352,0
29,0,10,150,134,0,0,1,0,207,1,0,0,0,0,0,0,0,1,0,2,0,0,0,0,0,0,1,1,508,0,3,511,0
30,0,19,125,112,0,8,1,0,155,0,0,0,0,0,0,0,0,0,0,1,0,0,0,0,0,1,0,0,422,0,3,425,0
31,0,7,144,108,0,0,0,0,184,0,0,0,0,0,1,0,1,0,1,0,0,0,0,0,0,0,0,0,446,0,0,446,0
32,0,23,139,266,1,1,0,0,289,2,0,0,0,1,0,1,2,2,0,0,0,0,0,0,0,1,0,0,728,0,6,734,0
33,0,30,118,163,1,0,1,1,213,1,1,0,1,0,1,1,0,0,0,0,0,0,0,0,0,1,0,0,533,0,4,537,0
34,0,22,147,101,3,0,2,0,228,0,0,1,0,0,0,0,0,0,0,0,0,0,1,0,0,0,0,0,505,0,1,506,0
35,1,19,159,183,0,0,0,0,193,1,0,0,0,0,0,0,0,0,0,0,0,1,0,0,0,0,0,0,557,0,3,560,0
36,1,20,122,130,0,0,0,0,183,0,0,0,1,0,0,0,0,1,0,0,0,0,0,0,0,0,0,1,459,0,4,463,0
37,2,24,123,186,0,0,1,0,193,0,1,1,0,0,2,0,1,0,0,0,0,0,0,0,0,0,0,1,535,0,3,538,0
38,2,19,111,207,1,1,1,2,355,0,1,2,2,1,0,0,1,1,0,0,1,0,0,0,1,0,0,1,710,0,4,714,0
39,2,18,164,101,0,1,0,0,153,0,2,0,0,1,0,0,0,1,0,0,0,0,0,0,0,0,0,0,443,0,3,446,0
40,1,33,204,222,2,1,3,0,300,2,0,1,1,1,0,0,0,1,1,0,0,0,0,0,0,0,0,0,773,0,5,778,0
41,1,25,153,154,0,1,0,0,321,0,1,0,0,1,0,0,0,2,1,5,0,0,0,0,2,1,0,0,668,0,2,670,0
42,3,17,131,193,1,0,0,1,266,0,1,0,0,1,0,0,1,0,0,0,0,0,0,0,0,1,1,0,617,0,2,619,0
43,1,26,152,111,0,0,0,0,214,3,1,0,2,0,0,1,0,0,0,1,0,0,0,0,0,2,1,0,515,0,1,516,0
44,1,21,135,113,1,0,0,0,202,0,0,0,0,0,0,0,0,0,0,0,0,0,0,0,0,0,1,2,476,0,5,481,0
45,1,13,174,180,1,1,1,0,265,1,0,0,0,0,0,2,0,0,0,2,0,0,1,0,0,0,0,0,642,0,6,648,0
46,1,29,186,214,3,2,0,2,334,1,2,0,0,0,0,0,0,0,0,0,1,0,0,0,0,1,1,2,779,0,9,788,0
47,6,27,138,186,1,2,0,3,265,2,0,0,0,0,0,0,0,0,0,0,0,0,0,0,0,0,0,2,632,0,4,636,0
48,3,20,159,130,1,1,0,0,287,1,1,0,0,1,0,1,1,1,0,1,0,0,0,0,1,0,1,2,612,0,5,617,0
49,1,15,100,85,0,0,0,0,214,0,0,0,1,0,0,0,0,0,0,0,1,0,1,0,0,0,0,1,419,0,6,425,0
50,1,40,205,166,0,0,0,0,269,0,0,0,0,0,0,0,1,0,1,1,1,0,0,0,0,0,0,1,686,0,6,692,0
51,2,44,168,202,1,0,0,1,303,0,1,0,2,0,0,1,1,1,1,0,0,1,0,0,1,0,1,0,731,0,2,733,0
52,1,24,187,160,1,0,1,1,218,0,0,0,0,0,0,0,2,0,0,1,0,0,0,1,0,0,0,5,602,0,6,608,0
53,0,37,185,150,0,1,0,2,356,1,1,0,0,1,0,0,4,1,0,1,0,0,0,0,0,1,0,0,741,0,2,743,0
54,1,31,122,124,0,1,0,1,226,0,0,0,1,0,0,0,0,0,0,1,0,0,0,0,1,0,0,0,509,0,3,512,0
55,0,23,102,106,1,0,1,1,158,2,0,0,0,0,0,0,0,0,0,0,0,0,0,0,0,0,0,0,394,0,2,396,0
56,1,50,182,136,1,0,2,2,214,1,0,1,0,1,1,0,0,1,1,0,1,0,0,0,0,1,0,0,596,0,4,600,0
57,0,27,163,117,2,1,1,0,199,0,1,0,0,0,0,1,1,1,0,1,0,0,0,1,0,0,0,1,517,0,2,519,0
58,3,19,156,84,0,0,0,0,186,1,0,1,0,0,0,0,0,0,1,1,0,0,0,0,0,1,0,0,453,0,4,457,0
59,0,24,196,192,0,1,1,1,346,0,0,0,0,0,0,0,0,0,0,1,1,0,0,0,1,0,0,1,765,0,2,767,0
60,0,28,210,103,0,0,1,1,227,1,0,0,0,0,2,2,0,0,0,0,0,1,0,0,0,0,0,0,576,0,2,578,0
61,0,32,175,157,1,0,0,1,265,0,1,0,1,1,0,0,0,0,0,0,0,0,0,0,0,0,0,0,634,0,4,638,0
62,2,34,156,127,1,0,1,0,212,1,1,0,1,0,0,0,0,0,1,0,1,0,1,1,0,0,2,0,542,0,3,545,0
63,1,18,124,121,2,0,0,0,123,0,0,0,0,0,0,0,0,0,0,0,0,0,0,0,0,1,0,0,390,0,3,393,0
64,0,28,191,145,0,0,0,1,234,0,0,0,1,0,0,1,2,1,0,1,0,1,0,0,1,0,0,0,607,0,0,607,0
65,1,24,195,119,1,0,0,0,223,1,1,0,0,0,0,2,0,1,0,0,0,1,0,1,0,0,0,1,571,0,3,574,0
66,2,25,183,155,0,1,1,1,189,1,0,0,0,0,0,0,0,0,1,1,0,0,0,0,0,1,0,3,564,0,3,567,0
67,0,34,299,168,0,0,0,0,254,0,0,0,1,1,0,0,1,0,0,0,1,2,0,0,0,0,0,0,761,0,7,768,0
68,1,46,253,204,1,0,0,1,203,0,0,0,0,1,0,0,0,0,0,0,0,0,0,0,0,0,0,1,711,0,5,716,0
69,0,29,262,126,0,0,0,2,187,0,0,0,0,0,0,0,0,0,0,0,0,0,0,0,0,0,0,0,606,0,4,610,0
70,0,20,231,140,1,0,0,1,212,2,1,0,0,0,0,0,0,0,0,0,0,0,0,0,0,0,0,0,608,0,3,611,0
71,1,15,102,152,1,0,2,1,188,1,0,0,0,0,0,2,1,0,0,2,0,1,0,0,1,1,0,0,471,0,1,472,0
72,0,42,219,180,3,0,0,1,320,1,0,0,0,0,1,0,0,0,0,0,0,0,0,0,1,0,1,0,769,0,3,772,0
73,0,27,139,168,2,0,1,0,272,1,0,0,0,0,0,0,1,2,0,3,0,0,0,0,0,0,0,0,616,0,1,617,0
74,1,25,112,108,0,0,1,0,136,0,0,0,2,0,0,0,0,0,0,1,1,0,0,0,0,0,0,0,387,0,3,390,0
75,1,29,158,173,2,0,2,1,275,3,0,0,0,2,0,1,0,0,1,0,0,0,2,1,0,0,0,0,651,0,4,655,0
76,0,39,216,147,2,0,2,0,299,1,1,0,0,2,0,0,0,0,2,0,0,0,0,1,0,0,0,1,713,0,3,716,0
77,1,9,122,89,2,0,0,0,165,0,0,0,0,0,0,1,0,0,0,3,0,0,0,0,1,0,0,0,393,0,4,397,0
78,1,52,208,169,0,0,0,0,298,1,0,0,0,0,0,0,0,1,0,2,0,1,0,1,0,0,0,0,734,0,5,739,0
79,1,29,101,94,0,0,1,0,228,0,0,0,0,0,0,1,0,0,3,2,1,0,1,0,2,1,0,0,465,0,2,467,0
80,1,22,175,186,1,1,0,1,290,1,1,0,0,1,0,0,1,0,1,0,1,0,1,0,1,0,0,0,685,0,5,690,0
81,3,16,208,262,0,2,0,2,307,2,1,0,1,0,0,0,0,1,6,3,2,2,1,1,1,0,1,0,822,0,2,824,0
82,1,26,224,209,1,0,0,0,246,0,0,0,0,0,0,0,0,0,0,0,1,0,0,0,0,0,0,0,708,0,7,715,0
83,1,36,240,190,0,0,1,4,266,1,0,0,1,0,0,0,1,2,1,1,0,0,0,0,0,0,0,1,746,0,6,752,0
84,2,28,176,212,1,0,0,1,296,1,0,0,0,1,1,0,0,1,0,0,0,0,0,0,0,0,0,1,721,0,7,728,0
85,3,21,217,117,0,0,1,0,220,0,1,0,1,1,0,0,2,0,0,2,0,0,0,0,0,0,0,0,586,0,6,592,0
86,1,36,170,155,0,0,0,1,258,1,0,0,0,0,0,2,0,2,0,0,0,0,2,0,0,0,0,0,628,0,3,631,0
87,0,29,125,127,0,0,1,0,167,0,0,0,0,0,0,0,0,0,0,0,0,0,0,0,0,0,1,1,451,0,3,454,0
88,2,34,229,117,0,0,0,1,302,0,1,0,0,2,0,0,0,0,0,0,1,0,0,0,1,1,0,2,693,0,0,693,0
89,1,35,198,169,1,1,1,3,357,2,1,0,2,0,0,1,0,0,2,2,0,0,0,2,0,0,1,1,780,0,0,780,0
90,1,18,172,136,1,0,0,2,304,2,2,0,0,0,0,1,0,1,2,1,0,1,0,0,0,0,1,0,645,0,7,652,0
91,2,32,199,144,0,0,0,0,218,0,0,0,0,0,0,1,0,0,0,0,0,0,0,0,0,0,0,0,596,0,7,603,0
92,0,20,178,140,1,0,1,0,252,0,0,0,0,0,0,0,2,0,1,5,0,0,0,0,1,0,0,0,601,0,5,606,0
93,1,39,211,203,0,0,0,1,310,2,0,0,0,0,0,0,2,0,0,0,0,0,0,0,1,0,0,0,770,0,6,776,0
94,0,31,180,145,0,0,0,0,259,0,0,0,0,0,0,1,0,0,2,2,1,0,0,1,4,0,1,1,628,0,5,633,0
95,0,9,119,264,0,1,1,0,164,0,0,0,1,0,0,0,0,0,0,0,0,0,0,0,0,0,0,1,560,0,1,561,0
96,1,21,203,156,0,2,0,0,197,0,1,1,0,0,0,1,1,0,2,1,2,0,0,0,1,1,0,1,592,0,3,595,0
97,2,16,126,181,0,0,1,1,154,0,0,0,0,0,0,0,0,0,0,0,0,0,0,0,1,0,0,0,482,0,5,487,0
98,1,20,112,376,1,0,1,1,172,1,0,0,0,0,0,0,1,0,0,0,1,0,0,1,1,0,0,1,690,0,7,697,0
99,0,21,223,109,0,0,0,0,136,0,1,0,0,0,0,1,0,0,0,1,0,0,1,1,0,1,1,1,497,0,6,503,0
100,3,26,218,177,0,0,1,0,200,0,0,0,0,0,0,1,1,0,1,0,0,0,1,0,0,0,0,1,630,0,8,638,0
101,3,12,181,167,0,0,2,0,232,1,0,0,1,0,0,1,1,1,1,1,0,0,0,0,0,0,0,0,604,0,3,607,0
102,1,23,153,120,2,0,0,1,182,0,0,0,1,1,0,1,0,0,0,1,0,0,0,0,0,0,0,0,486,0,2,488,0
103,0,22,173,163,2,0,1,0,200,0,0,0,0,0,0,0,0,0,0,1,1,0,0,0,0,0,0,1,564,0,3,567,0
104,1,23,174,144,1,0,0,0,211,0,0,0,1,0,0,1,0,2,1,0,0,0,0,0,1,0,0,0,560,0,1,561,0
105,1,19,144,95,0,0,0,0,175,0,0,0,0,0,0,0,0,0,3,3,1,0,0,1,0,0,0,1,443,0,3,446,0
106,1,41,198,175,0,0,1,0,190,2,0,0,0,0,0,0,1,0,0,0,0,0,0,0,1,0,0,1,611,0,5,616,0
107,0,27,206,144,1,0,0,0,132,1,0,0,0,0,0,0,0,0,0,0,0,0,0,0,0,0,0,0,511,0,3,514,0
108,0,24,182,129,0,1,1,0,143,1,0,0,0,0,0,0,0,0,0,0,0,0,0,0,0,0,0,0,481,0,3,484,0
109,1,20,100,113,1,0,0,0,107,0,0,0,1,0,1,0,1,1,0,0,0,0,0,0,1,0,0,0,347,0,2,349,0
110,1,18,75,93,1,0,0,1,111,0,0,0,0,0,0,0,0,0,0,1,0,1,0,0,0,0,0,0,302,0,0,302,0
111,1,23,206,180,3,0,1,0,233,1,0,0,0,0,0,0,0,0,0,0,0,0,0,0,0,0,0,0,648,0,7,655,0
112,0,21,237,179,2,0,1,0,205,0,0,0,1,0,1,0,0,0,0,0,0,0,0,1,0,0,0,2,650,0,8,658,0
113,0,20,74,320,1,0,2,0,273,0,1,0,2,0,0,0,2,0,0,1,0,1,0,0,0,0,0,0,697,0,4,701,0
114,1,19,126,177,0,5,0,2,286,1,0,0,0,0,0,0,0,1,2,1,0,0,0,0,0,0,0,0,621,0,3,624,0
115,2,32,257,146,1,0,1,1,371,3,0,1,1,1,0,2,0,0,1,0,1,0,0,0,0,0,0,0,821,0,2,823,0
116,1,28,121,167,3,0,0,0,285,0,1,0,1,0,1,1,0,0,1,0,0,0,0,0,0,1,0,0,611,0,2,613,0
117,0,31,120,97,0,0,0,0,128,1,0,0,0,2,0,0,0,0,1,0,0,1,0,0,0,0,0,0,381,0,7,388,0
118,2,36,80,257,1,1,1,0,311,2,0,0,0,0,0,2,0,0,1,0,0,0,0,0,0,0,0,1,695,0,4,699,0
119,0,43,88,186,3,0,1,0,255,2,0,0,0,0,1,0,1,0,0,1,0,1,0,1,1,0,0,0,584,0,7,591,0
120,0,25,163,139,1,9,0,0,217,0,0,0,0,0,0,0,0,0,0,0,0,0,0,0,0,0,0,1,555,0,4,559,0
121,3,7,146,136,0,0,1,1,160,0,0,0,0,0,0,0,0,0,0,0,0,0,1,0,0,0,0,0,455,0,10,465,0
122,2,32,149,179,0,0,1,0,301,1,0,0,1,0,1,0,1,1,1,1,0,0,0,0,0,0,1,0,672,0,6,678,0
123,0,21,63,121,0,0,0,0,138,0,0,0,0,0,1,0,0,0,0,0,0,0,0,0,0,0,0,0,344,0,3,347,0
124,0,41,212,187,1,3,1,3,263,1,0,1,0,0,0,0,0,0,1,0,0,0,0,0,0,0,0,1,715,0,5,720,0
125,4,32,218,215,0,3,0,3,365,0,0,0,1,0,0,2,0,1,0,2,1,0,0,0,0,0,1,1,849,0,6,855,0
126,0,20,171,147,1,1,0,3,257,0,0,0,1,0,1,0,0,0,0,0,0,0,0,0,0,0,0,0,602,0,4,606,0
127,2,36,221,207,0,0,0,0,427,0,0,0,1,0,0,1,1,0,0,1,2,0,0,0,1,0,0,0,900,0,2,902,0
128,1,21,174,98,1,2,1,1,227,0,0,0,0,1,0,0,0,0,1,0,0,0,0,0,1,0,0,0,529,0,1,530,0
129,3,28,191,137,2,0,1,0,207,1,0,0,0,0,0,0,0,0,4,2,0,0,0,1,0,0,0,1,578,0,5,583,0
130,2,32,153,191,2,0,2,1,291,1,1,0,0,1,0,0,0,0,1,0,0,0,1,1,0,0,0,0,680,0,6,686,0
131,3,15,189,171,5,2,2,1,385,0,0,1,0,1,0,0,1,1,0,1,2,1,0,0,0,0,1,1,783,0,3,786,0
132,1,21,166,165,1,2,0,0,246,0,0,0,1,1,0,0,0,0,0,0,1,0,1,0,0,0,1,0,607,0,1,608,0
133,0,27,242,162,1,0,1,0,183,0,0,0,1,1,0,1,1,0,0,1,0,0,0,0,0,0,1,0,622,0,2,624,0
134,1,21,108,104,2,0,0,1,164,1,0,0,0,0,0,0,0,0,0,0,0,0,0,0,0,0,1,0,403,0,3,406,0
135,2,20,127,167,2,5,0,0,205,0,0,0,0,1,0,0,0,0,0,1,0,1,0,0,0,0,0,0,531,0,3,534,0
136,0,27,155,167,2,0,0,1,224,1,0,0,0,1,0,1,1,0,1,1,0,0,0,0,0,0,1,1,584,0,2,586,0
137,5,31,135,152,2,0,1,0,203,1,1,0,0,0,0,0,0,1,1,1,0,0,0,0,0,0,1,0,535,0,6,541,0
138,1,36,120,162,0,2,0,0,259,0,0,0,1,1,0,0,1,1,1,1,0,0,0,0,0,2,0,0,588,0,3,591,0
139,0,24,137,119,2,0,1,0,180,1,1,0,0,0,0,0,1,0,0,0,2,0,0,0,0,0,0,0,468,0,6,474,0
140,2,24,121,158,0,0,1,0,147,1,0,0,0,0,0,0,0,0,0,1,0,0,1,0,0,0,0,0,456,0,4,460,0
141,1,17,165,142,0,0,0,0,161,1,0,0,0,1,0,0,0,0,0,0,0,0,0,0,0,0,0,0,488,0,3,491,0
142,3,19,191,130,0,2,0,0,308,0,1,0,1,0,0,0,0,0,0,0,0,0,0,0,1,0,0,3,659,0,2,661,0
143,1,8,99,102,2,0,0,0,171,0,0,0,0,0,0,0,1,0,1,0,0,0,0,0,0,1,0,0,386,0,0,386,0
144,2,35,161,201,0,0,0,0,339,0,0,0,0,0,0,0,0,0,0,0,0,0,0,0,0,0,0,0,738,0,2,740,0
145,1,20,186,213,3,0,0,1,299,1,1,0,1,0,0,0,0,2,1,1,0,0,0,1,2,0,1,0,734,0,0,734,0
146,1,28,123,136,3,0,1,2,304,0,1,0,0,0,0,0,0,0,0,1,1,1,0,0,1,0,0,0,603,0,3,606,0
147,2,24,155,164,2,0,0,2,273,0,0,0,1,0,0,1,0,0,0,3,0,0,0,0,1,1,0,1,630,0,2,632,0
148,0,18,176,163,0,0,1,0,231,0,0,0,1,0,0,2,0,0,0,0,0,0,0,0,0,0,0,0,592,0,9,601,0
149,4,32,187,230,2,0,0,3,371,1,0,2,0,0,0,0,3,2,1,4,2,1,0,0,1,1,0,2,849,0,2,851,0
150,0,26,188,139,0,0,0,0,177,1,0,0,1,0,0,2,0,0,1,1,0,0,0,0,0,0,1,3,540,0,3,543,0
151,3,30,149,213,1,1,0,3,288,0,1,0,1,1,0,1,1,1,0,2,1,0,0,0,0,0,0,0,697,0,4,701,0
152,1,26,248,135,1,0,1,1,227,1,0,0,0,0,1,0,0,0,0,2,0,0,0,0,1,0,1,1,647,0,7,654,0
153,3,35,204,127,0,1,1,0,122,0,0,0,0,0,0,0,0,0,0,0,0,0,0,0,0,1,1,0,495,0,10,505,0
154,0,20,169,109,0,0,0,0,142,0,0,0,0,0,0,0,0,0,0,2,1,0,0,1,0,0,0,0,444,0,10,454,0
155,1,31,234,156,1,0,2,1,261,1,0,0,0,0,0,0,1,0,0,0,0,0,0,0,0,2,1,1,693,0,5,698,0
156,0,29,173,205,0,0,1,1,314,0,0,0,2,1,0,1,0,0,1,1,0,0,0,0,0,0,0,0,729,0,1,730,0
157,1,31,240,166,2,2,1,0,312,0,0,0,0,1,0,0,1,0,2,1,0,0,0,1,0,0,0,0,761,0,3,764,0
158,1,31,239,111,0,2,1,1,268,1,0,0,1,0,0,1,1,0,4,1,2,0,0,1,0,0,0,0,666,0,8,674,0
159,1,32,204,160,1,1,0,1,185,1,0,0,0,0,0,0,0,0,0,0,0,0,0,0,0,1,0,2,589,0,11,600,0
160,0,27,252,120,1,0,0,1,239,0,0,0,0,0,0,0,0,1,0,0,0,0,0,0,0,0,0,1,642,0,7,649,0
161,1,32,206,151,0,0,0,0,243,0,0,0,0,0,0,1,1,0,0,0,0,1,1,1,0,0,0,2,640,0,9,649,0
162,2,28,217,152,0,0,1,0,262,1,0,0,0,0,0,0,0,0,2,2,1,0,0,0,0,0,0,0,668,0,5,673,0
163,1,22,207,153,1,0,0,0,278,0,0,0,0,0,0,0,2,0,2,1,1,0,0,0,0,0,0,1,669,0,6,675,0
164,0,24,243,133,0,0,0,0,233,2,0,0,0,0,0,0,1,1,0,1,0,0,0,0,0,0,0,0,638,0,3,641,0
165,0,17,181,140,0,0,0,0,184,0,0,0,1,1,0,1,0,0,1,2,0,1,0,0,0,0,0,1,530,0,3,533,0
166,0,24,222,121,0,0,0,0,255,0,0,0,1,1,0,0,0,0,0,1,0,0,0,0,0,0,0,0,625,0,6,631,1
167,0,23,154,128,1,0,0,0,224,2,0,0,0,1,1,0,0,0,1,1,0,0,0,0,0,0,0,0,536,0,4,540,0
168,2,15,162,139,0,1,1,0,187,1,0,0,0,0,0,0,1,2,0,0,1,0,0,0,3,0,0,0,515,0,1,516,0
169,1,24,175,134,0,1,1,0,192,1,0,0,1,0,0,0,0,0,0,1,0,0,0,1,0,0,0,2,534,0,4,538,0
170,0,41,139,166,1,0,0,1,249,0,0,0,0,0,0,0,1,0,0,0,1,0,0,0,0,0,1,0,600,0,2,602,0
171,2,28,165,112,2,0,0,1,173,1,0,0,0,0,0,1,0,0,0,0,1,0,0,0,0,0,0,0,486,0,8,494,0
172,1,26,177,112,4,1,1,0,186,0,1,0,2,3,0,0,0,1,0,0,1,0,0,0,0,0,0,0,516,0,5,521,0
173,1,20,91,166,0,0,0,0,205,0,0,1,0,0,1,0,0,0,0,1,1,1,0,1,0,0,0,1,490,0,2,492,0
174,3,27,137,186,2,0,0,0,217,0,0,0,0,0,0,0,1,0,0,0,0,0,0,1,0,1,1,0,576,0,0,576,0
175,0,25,119,159,3,0,0,2,174,0,1,0,0,0,0,1,0,0,1,0,0,0,1,0,0,0,0,0,486,0,5,491,0
176,2,26,153,138,0,0,1,1,300,0,0,0,0,3,0,0,2,0,0,1,1,0,0,0,0,0,1,1,630,0,8,638,1
177,1,18,166,140,0,0,0,0,199,0,0,0,0,0,0,0,0,1,0,0,0,0,0,1,0,0,0,0,526,0,5,531,0
178,2,38,145,144,1,0,0,0,207,0,0,0,0,0,0,1,0,0,0,0,1,0,0,1,0,0,0,0,540,0,4,544,0
179,0,36,187,192,0,0,1,0,283,0,0,0,0,0,1,0,0,0,0,0,0,0,1,0,1,0,1,0,703,0,3,706,0
180,0,27,122,147,1,1,0,1,194,0,0,0,0,0,0,0,0,0,0,0,1,0,0,0,1,0,1,1,497,0,5,502,1
181,3,28,163,176,1,0,0,0,420,4,0,0,1,0,0,1,0,2,1,1,1,1,0,0,1,0,0,0,804,0,1,805,0
182,4,15,149,188,0,1,0,1,267,0,0,1,1,0,0,1,2,1,1,2,0,0,0,0,0,0,0,1,635,0,0,635,0
183,5,23,138,204,0,1,1,2,340,0,0,0,2,0,0,1,0,1,0,2,0,0,0,0,0,0,1,0,721,0,6,727,0
184,0,27,134,160,0,1,0,0,250,0,0,0,1,1,0,0,0,0,0,2,0,0,0,1,2,0,0,0,579,0,6,585,0
185,0,14,184,152,1,0,0,1,202,0,0,0,0,0,0,0,0,0,0,0,0,0,0,1,0,0,0,0,555,0,3,558,0
186,0,26,164,141,1,0,0,0,210,1,0,0,0,1,0,0,0,0,1,1,0,0,0,0,0,0,1,0,547,0,1,548,0
187,0,18,160,186,1,0,1,2,221,0,0,0,0,0,0,0,1,0,1,1,0,1,0,0,0,0,0,0,593,0,6,599,0
188,0,27,242,142,0,0,1,0,174,0,0,0,0,1,0,1,1,0,1,1,0,0,0,2,0,0,0,1,594,0,6,600,0
189,0,23,128,100,1,0,1,1,170,1,0,0,0,0,0,0,1,1,1,0,1,0,0,0,0,0,0,1,430,0,1,431,0
190,0,25,158,143,0,0,2,0,197,1,0,0,0,0,0,0,1,0,2,0,0,0,0,0,1,0,0,0,530,0,4,534,0
191,5,27,185,134,1,0,0,0,255,1,0,1,1,0,0,0,1,0,0,0,0,0,0,0,1,0,0,0,612,0,2,614,0
192,0,24,180,116,0,0,0,0,160,2,0,0,0,0,0,1,1,0,0,0,0,0,0,0,0,0,0,2,486,0,3,489,0
193,0,12,164,100,3,2,0,0,135,1,0,0,1,0,1,0,0,0,1,0,0,0,0,0,0,0,0,0,420,0,1,421,0
194,2,20,185,169,0,0,0,1,268,1,0,0,0,0,0,1,2,0,0,0,0,0,0,0,0,0,0,0,649,0,2,651,0
195,0,49,184,149,1,0,2,0,231,1,1,0,0,0,1,0,1,0,0,1,0,0,1,1,0,0,1,2,626,0,5,631,0
196,0,30,194,198,1,0,1,1,228,0,0,0,1,2,0,0,0,0,2,2,0,0,0,1,1,0,0,1,663,0,10,673,0
197,0,27,182,161,1,0,0,1,145,0,0,0,0,0,0,0,0,0,1,0,0,0,0,0,0,0,0,0,518,0,2,520,0
198,1,31,197,201,0,0,1,0,205,1,0,0,0,0,0,0,1,0,0,0,0,0,0,0,0,0,0,2,640,0,5,645,0
199,2,21,131,133,0,0,0,2,175,0,0,1,0,0,1,0,3,0,0,0,1,0,1,0,1,0,1,0,473,0,5,478,0
200,2,36,84,334,2,0,0,0,226,0,0,0,0,0,0,0,0,0,0,0,0,0,0,0,0,0,0,1,685,0,3,688,0
201,0,28,180,272,3,0,1,1,333,0,0,0,0,0,0,1,0,0,1,1,0,0,0,0,0,0,0,0,821,0,2,823,0
202,2,24,105,146,1,0,1,1,191,2,0,0,0,0,0,0,0,0,0,0,1,0,0,1,0,0,0,0,475,0,1,476,0
203,0,29,147,238,4,0,0,0,225,2,0,0,0,0,0,0,1,0,0,0,0,0,0,0,0,0,1,1,648,0,3,651,0
204,0,27,119,198,1,0,1,1,247,2,0,1,2,0,0,0,0,0,0,1,0,0,2,0,0,0,0,1,603,0,3,606,0
205,2,43,163,279,0,0,1,1,393,0,0,1,3,0,0,1,0,2,1,1,0,0,0,0,2,0,1,0,894,0,3,897,0
206,2,19,211,199,0,0,0,1,201,5,0,0,0,0,0,0,1,2,1,0,0,0,0,0,0,0,0,0,642,0,4,646,0
207,3,23,181,136,1,0,1,2,183,0,1,0,1,0,0,0,0,0,1,2,0,0,0,0,0,0,0,0,535,0,4,539,0
208,2,22,128,140,0,0,0,0,161,0,0,0,0,0,0,0,1,1,2,1,0,0,0,0,1,0,0,1,460,0,3,463,0
209,0,20,77,162,1,1,1,1,163,1,0,0,1,0,0,1,1,0,1,1,0,0,0,0,0,0,0,0,432,0,2,434,0
210,0,30,206,140,2,0,1,1,211,0,0,0,0,0,0,0,0,0,1,1,0,0,0,0,0,0,0,0,593,0,4,597,0
211,1,28,156,110,0,0,0,0,274,2,1,0,0,0,0,0,0,0,1,0,0,0,0,0,0,0,0,1,574,0,1,575,0
212,1,35,154,99,1,2,1,0,312,2,0,1,0,0,1,0,0,0,1,0,0,0,0,0,0,0,1,1,612,0,5,617,0
213,0,20,133,147,0,1,1,0,354,1,0,0,0,0,0,2,2,0,0,0,0,1,0,0,0,0,0,0,662,0,5,667,0
214,4,33,179,171,1,0,1,0,317,3,0,0,1,0,0,1,0,0,1,0,0,0,0,0,1,0,0,0,713,0,1,714,0
215,0,44,190,216,0,1,0,0,352,0,0,0,0,1,0,0,1,0,0,0,1,0,2,1,2,0,0,2,813,0,1,814,0
216,0,26,225,176,2,0,0,1,264,0,1,0,1,0,0,0,0,0,1,1,1,0,0,0,1,1,0,0,701,0,0,701,0
217,0,16,162,150,2,0,2,0,233,0,1,0,2,1,0,1,0,0,1,2,0,0,1,0,1,0,0,0,575,0,1,576,0
218,0,12,143,133,3,2,0,0,295,1,1,0,1,0,0,0,0,0,1,0,0,0,0,0,0,0,0,0,592,0,2,594,0
219,0,18,138,149,0,1,1,1,293,2,0,0,1,0,0,2,1,0,1,0,1,1,0,0,2,0,0,1,613,0,3,616,0
220,3,33,171,158,1,1,2,1,323,1,1,0,0,1,0,0,1,1,0,1,0,0,0,0,0,0,0,0,699,0,6,705,0
221,0,41,178,238,0,0,1,2,358,0,1,0,0,0,0,0,0,0,0,1,0,0,1,0,1,0,0,1,823,0,3,826,0
222,0,29,156,196,3,0,1,0,282,2,0,0,0,0,1,0,0,0,0,0,0,0,0,0,0,0,0,0,670,0,5,675,0
223,4,34,163,104,1,1,0,6,338,0,0,0,0,0,0,0,0,0,0,0,0,0,0,0,0,0,1,1,653,0,3,656,0
224,1,55,203,294,1,1,1,1,302,1,0,0,1,0,1,1,0,1,1,1,0,3,1,0,0,1,0,0,871,0,9,880,0
225,0,28,136,191,0,0,1,2,322,0,0,0,0,0,0,0,0,0,0,2,1,1,0,0,1,0,0,0,685,0,3,688,0
226,2,31,95,314,2,0,0,0,220,0,0,0,0,0,0,0,0,1,1,0,1,0,0,0,0,1,0,0,668,0,3,671,0
227,2,35,182,184,0,0,0,0,227,0,0,0,1,0,0,0,0,1,0,0,0,0,0,0,0,0,0,0,632,0,5,637,0
228,1,37,163,192,1,0,1,0,304,0,0,0,0,1,0,1,0,0,0,2,0,0,0,0,0,0,0,1,704,0,5,709,0
229,0,29,111,120,0,1,1,0,140,1,0,0,0,1,1,0,0,0,0,0,0,1,0,0,0,0,0,1,407,0,1,408,0
230,1,26,91,135,0,0,0,1,174,1,0,0,0,1,0,0,0,0,0,0,0,0,1,0,0,0,0,2,433,0,4,437,0
231,1,39,136,199,1,1,1,1,301,1,0,0,0,0,0,0,0,0,1,2,0,1,0,0,0,0,0,1,686,0,1,687,0
232,4,39,171,305,1,0,2,2,273,1,0,3,0,0,0,0,1,0,0,0,0,0,0,0,1,0,0,1,804,0,7,811,0
233,3,51,169,229,1,0,0,0,353,1,0,0,0,0,0,0,0,2,0,2,0,0,0,0,0,0,0,1,812,0,4,816,0
234,0,30,142,216,0,0,3,1,270,0,0,0,0,0,0,1,0,1,0,1,0,0,0,0,0,0,1,2,668,0,7,675,0
235,0,49,212,153,2,0,0,1,358,2,0,0,1,0,0,0,0,0,1,0,0,0,0,0,0,0,0,0,779,0,3,782,0
236,1,18,115,122,1,0,0,0,161,2,0,0,2,0,1,2,0,0,0,0,0,0,0,0,1,0,0,1,427,0,4,431,0
237,0,30,145,167,0,0,1,0,290,1,0,1,0,1,0,0,1,0,1,0,1,0,0,0,0,0,0,1,640,0,5,645,0
238,0,29,149,119,1,0,0,0,233,2,0,0,0,0,1,0,0,1,1,0,0,0,0,0,0,0,0,0,536,0,1,537,0
239,1,31,210,215,3,1,1,3,281,0,0,0,1,0,0,1,1,0,0,1,0,0,1,0,1,0,0,0,752,0,3,755,0
240,1,37,182,156,0,0,2,1,297,1,0,1,0,0,1,1,0,0,0,0,0,0,0,0,2,1,0,0,683,0,4,687,0
241,1,23,122,125,1,0,0,0,304,3,0,0,0,0,2,0,2,0,0,1,0,0,0,0,0,0,0,0,584,0,2,586,0
242,0,15,225,188,1,0,1,2,291,1,0,0,1,0,0,0,2,0,0,1,0,0,1,0,0,1,0,0,730,0,2,732,0
243,0,28,214,149,0,0,0,2,319,2,0,0,0,1,1,2,1,0,0,3,1,0,0,0,0,0,0,2,725,0,0,725,0
244,1,43,186,163,1,1,0,1,332,0,1,0,1,0,0,0,0,2,3,1,2,0,0,1,0,0,2,2,743,0,1,744,0
245,1,22,191,130,1,0,0,1,319,1,0,1,0,0,0,1,1,0,0,0,0,0,0,0,0,0,0,0,669,0,2,671,0
246,0,29,132,86,0,1,0,2,295,0,0,0,0,1,1,0,0,0,1,1,0,0,0,0,0,0,0,0,549,0,4,553,0
247,2,22,183,154,0,0,0,0,253,1,0,0,0,0,1,0,1,0,1,2,0,0,0,1,2,0,0,3,626,0,1,627,1
248,1,48,139,175,3,1,1,2,297,0,0,0,0,0,0,0,0,1,1,2,1,0,0,0,0,0,2,2,676,0,2,678,0
249,3,11,136,142,0,0,2,0,197,0,0,0,0,0,0,0,1,0,2,1,0,2,0,0,1,0,0,0,498,0,1,499,0
250,0,18,155,158,4,1,1,1,234,1,0,0,0,0,0,1,0,0,1,0,0,0,0,0,0,0,0,0,575,0,3,578,0
251,1,37,138,133,2,0,0,0,212,1,0,0,0,0,0,0,0,0,0,1,0,0,0,0,0,0,0,0,525,0,0,525,0
252,0,44,200,221,1,0,0,1,297,0,0,0,0,2,0,0,0,1,0,2,0,0,0,0,1,0,0,3,773,0,6,779,0
253,0,27,160,154,2,0,0,1,305,2,0,0,1,0,0,0,0,0,0,1,0,0,0,0,0,0,0,0,653,0,6,659,0
254,0,12,156,126,2,1,1,0,259,1,0,0,1,0,0,0,2,0,0,0,0,0,0,0,1,1,0,1,564,0,2,566,0
255,1,23,131,115,0,1,0,0,218,0,0,1,0,0,0,0,2,0,0,0,0,0,0,0,0,0,0,0,492,0,1,493,0
256,1,22,107,117,1,0,0,2,180,1,0,0,0,0,1,0,0,0,0,1,0,0,0,0,0,0,0,0,433,0,2,435,0
257,4,20,130,119,0,1,1,0,211,0,0,1,1,0,0,1,0,1,1,0,0,0,0,0,0,0,0,0,491,0,3,494,0
258,3,38,125,228,2,0,0,0,279,0,1,1,0,1,0,0,0,0,1,2,0,0,0,1,0,0,0,0,682,0,1,683,0
259,0,35,179,193,0,0,2,0,250,0,0,0,0,0,0,0,0,0,0,1,0,0,1,0,0,1,0,0,662,0,1,663,0
260,0,17,171,151,1,0,0,1,210,0,0,0,0,1,0,0,2,0,0,0,0,0,0,0,0,0,0,1,555,0,7,562,0
261,1,34,170,150,0,0,0,1,286,1,0,0,0,0,0,0,0,0,0,0,0,0,0,0,0,0,1,0,644,0,3,647,0
262,0,26,176,122,0,0,0,1,199,1,0,0,1,2,0,1,0,0,0,0,0,0,0,0,0,0,0,1,530,0,3,533,0
263,0,50,217,187,1,0,1,0,388,2,2,0,0,0,0,3,2,0,2,0,1,0,0,1,2,0,0,1,860,0,1,861,0
264,1,23,107,133,1,0,1,2,244,1,0,1,1,0,0,0,0,0,0,1,1,1,0,0,1,0,0,0,519,0,0,519,0
265,2,51,188,178,1,1,1,2,448,1,0,0,0,1,1,2,0,1,1,0,0,0,1,1,1,0,0,0,882,0,4,886,0
266,3,36,170,241,1,0,0,0,392,1,1,0,1,0,0,1,0,1,1,0,0,0,0,0,0,0,0,0,849,0,5,854,0
267,1,29,147,236,1,1,0,1,357,0,0,0,0,2,1,0,2,0,0,0,0,0,0,0,1,0,0,0,779,0,5,784,0
268,2,33,189,153,1,1,0,0,252,1,0,0,1,1,0,2,0,0,1,1,1,0,0,0,0,0,0,0,639,0,2,641,0
269,4,29,159,206,0,0,0,0,230,0,1,0,0,0,0,0,2,0,0,0,0,0,0,0,1,1,1,0,634,0,3,637,0
270,5,39,182,172,0,1,0,1,301,0,1,0,0,0,0,0,2,1,0,0,0,0,0,0,1,0,2,1,709,0,4,713,0
271,1,21,160,146,0,1,0,0,140,1,0,0,0,0,0,0,1,0,0,1,0,0,0,0,0,0,0,0,472,0,5,477,0
272,1,12,190,207,0,0,1,0,182,1,0,0,1,0,0,0,0,1,0,1,0,0,0,0,0,0,0,0,597,0,1,598,0
273,3,14,202,86,1,0,1,0,128,0,1,0,0,0,0,0,0,0,2,1,0,0,0,0,0,0,0,0,439,0,3,442,0
274,0,18,238,91,0,0,1,2,255,0,0,0,0,1,0,0,2,0,1,0,0,0,0,0,0,0,0,0,609,0,4,613,0
275,3,26,179,182,1,0,1,0,304,2,1,0,1,1,0,0,0,0,1,0,2,1,0,0,0,0,0,0,705,0,4,709,0
276,0,19,157,254,0,0,0,0,227,0,0,0,3,0,1,0,1,0,0,0,0,1,0,0,0,0,0,0,663,0,4,667,0
277,0,26,235,184,0,2,1,0,230,0,0,0,1,2,0,0,0,0,0,0,0,0,0,0,0,0,0,0,681,0,8,689,0
278,0,30,223,211,3,0,1,1,285,0,2,0,0,0,1,0,2,0,0,0,0,0,0,0,0,0,0,2,761,0,2,763,0
279,4,38,259,174,0,0,0,3,329,1,1,0,2,0,0,0,2,1,0,1,0,0,0,1,2,0,1,0,819,0,7,826,0
280,3,24,182,107,0,0,1,2,155,0,0,0,0,1,0,1,0,0,1,0,0,0,0,0,0,0,0,0,477,0,4,481,0
281,0,18,142,170,0,0,0,0,131,0,0,0,0,0,0,1,0,1,0,0,0,0,0,0,0,0,0,0,463,0,6,469,0
282,1,29,216,173,1,0,1,1,260,1,1,0,0,0,0,0,0,0,0,0,0,0,0,0,0,0,0,0,684,0,5,689,0
283,0,23,114,219,1,0,1,1,235,2,0,2,0,0,1,1,1,0,0,1,0,0,0,2,0,0,0,1,605,0,4,609,0
284,0,35,157,128,0,0,0,0,322,1,1,0,0,0,0,1,0,0,0,2,0,0,0,0,2,0,0,0,649,0,4,653,0
285,0,29,167,156,1,0,0,1,200,1,0,0,0,1,0,0,0,0,1,0,0,0,0,0,0,1,0,0,558,0,6,564,0
286,0,24,197,163,0,0,1,0,256,0,0,0,0,0,0,1,0,0,0,0,0,0,0,1,0,0,0,0,643,0,0,643,0
287,0,22,101,144,0,0,1,1,237,0,0,0,0,0,0,0,0,1,0,1,1,0,1,0,0,1,0,1,512,0,1,513,0
288,1,23,174,184,0,0,0,2,245,0,0,0,0,1,0,0,2,0,1,1,1,0,0,0,0,0,0,1,636,0,9,645,0
289,2,21,259,192,0,0,0,1,248,0,0,0,0,0,0,0,0,0,0,1,0,0,0,0,1,0,0,0,725,0,4,729,0
290,1,30,135,134,3,0,0,1,220,1,0,0,0,0,0,2,1,0,0,1,0,0,1,0,0,0,0,0,530,0,4,534,0
291,1,33,250,213,2,1,1,1,309,2,0,0,1,1,0,1,1,0,1,2,0,1,0,0,0,0,0,1,822,0,4,826,0
292,4,29,184,130,0,2,3,1,359,0,0,0,2,0,0,0,0,1,1,3,1,0,1,1,0,0,0,1,723,0,4,727,0
293,0,26,165,160,0,0,0,0,187,0,0,0,0,1,0,0,0,0,0,0,1,0,1,0,0,0,0,2,543,0,5,548,0
294,3,26,220,186,1,0,1,4,307,0,0,1,0,0,0,1,0,0,2,1,0,0,0,0,0,0,0,0,753,0,6,759,0
295,0,28,237,168,0,0,0,1,217,1,0,0,0,0,0,0,0,0,0,0,0,0,0,0,0,0,0,0,652,0,1,653,0
296,0,27,242,163,3,2,0,2,258,0,0,0,0,0,0,0,0,0,0,0,0,0,0,0,1,0,0,0,698,0,7,705,0
297,1,33,196,191,0,0,1,0,200,0,0,0,2,0,2,0,0,0,0,0,0,0,0,0,0,1,1,2,630,0,2,632,0
298,0,32,210,182,1,0,0,1,307,2,0,0,0,2,0,1,0,0,0,1,0,0,0,0,0,0,0,0,739,0,9,748,0
299,0,25,213,196,1,1,1,1,236,0,1,0,1,0,0,0,0,0,0,0,0,0,0,0,0,1,0,0,677,0,10,687,0
300,1,17,160,143,0,0,0,0,148,0,1,0,0,0,0,0,0,0,0,0,0,1,1,1,0,0,0,1,474,0,3,477,0
301,2,34,147,236,0,0,0,3,210,1,0,0,0,0,0,0,0,0,0,2,0,0,0,0,0,0,0,1,636,0,2,638,0
302,1,28,172,128,1,0,0,0,118,0,1,0,1,0,0,0,0,0,0,0,0,0,0,0,0,0,0,0,450,0,1,451,0
303,1,25,150,229,1,3,1,1,232,0,0,0,1,0,0,1,0,0,0,1,1,0,0,0,0,0,0,2,649,0,1,650,0
304,2,15,14,660,1,0,0,0,81,1,0,1,0,1,0,0,1,1,0,3,0,0,0,1,0,0,0,0,782,0,1,783,0
305,1,8,19,681,1,0,1,0,109,2,0,1,0,0,0,1,1,0,1,2,0,0,0,0,0,1,0,1,830,0,1,831,0
306,2,13,22,457,0,0,0,0,87,1,0,2,0,0,0,1,0,0,1,0,0,0,0,0,0,1,0,1,588,0,0,588,0
307,0,8,20,517,2,0,0,0,73,2,0,0,2,0,0,0,0,0,0,3,0,0,0,0,0,0,0,0,627,0,3,630,0
308,4,11,14,726,3,0,0,0,111,1,0,0,0,0,0,0,1,1,0,1,0,1,0,0,0,0,0,0,874,0,3,877,0
309,4,9,88,280,1,0,0,1,128,3,0,0,1,0,0,0,0,0,0,0,0,0,0,0,1,0,0,0,516,0,3,519,1
310,0,10,85,487,1,1,0,0,127,4,1,1,2,0,0,0,1,0,0,2,0,0,0,0,0,0,0,0,722,0,2,724,0
311,6,17,68,458,4,0,0,0,197,1,0,0,2,0,0,2,0,1,0,3,0,0,0,1,0,1,0,0,761,0,2,763,0
312,3,18,25,746,1,0,0,0,116,1,0,0,0,0,0,0,0,0,1,0,0,0,0,0,0,0,0,1,912,0,1,913,0
313,0,12,111,273,1,1,1,0,281,2,0,0,0,0,0,0,0,0,1,2,0,0,0,0,1,1,0,0,687,0,4,691,0
314,0,19,20,423,0,0,0,0,114,1,1,0,0,0,0,0,1,0,0,4,0,0,0,0,0,0,0,0,583,0,2,585,0
315,3,12,30,338,1,1,0,3,134,2,2,0,0,0,0,0,0,0,1,1,0,0,0,0,0,0,0,0,528,0,2,530,0
316,2,18,51,522,2,0,0,1,145,0,0,1,0,0,0,0,2,0,1,6,0,0,0,0,0,0,0,0,751,0,2,753,0
317,2,8,97,371,2,0,0,0,319,1,1,0,0,0,0,2,2,0,0,5,0,0,0,1,1,0,0,0,812,0,4,816,0
318,5,23,30,720,0,0,0,0,126,0,0,0,0,0,0,0,0,0,0,1,2,1,0,0,0,0,0,0,908,0,0,908,0
319,3,22,72,530,1,0,1,1,138,2,0,0,0,0,0,0,0,0,1,1,1,0,0,0,0,0,0,0,773,0,8,781,0
320,1,23,43,480,1,0,1,0,137,4,1,3,0,0,0,0,0,0,0,3,0,0,0,0,0,0,1,0,698,0,3,701,0
321,5,17,48,479,2,0,2,0,198,2,0,0,1,2,1,0,0,0,1,1,0,0,0,0,1,0,0,0,760,0,3,763,0
322,1,16,20,381,2,1,0,0,151,3,3,1,1,0,0,0,1,1,0,1,0,0,0,0,0,0,0,0,583,0,2,585,0
323,4,19,17,397,3,1,1,2,136,2,0,2,1,0,0,1,0,0,1,1,0,0,0,1,0,0,0,0,589,0,1,590,0
324,1,36,139,272,1,0,0,0,222,0,0,1,0,1,0,1,1,0,0,0,0,1,0,1,0,0,0,1,678,0,4,682,0
325,1,43,131,202,2,1,4,2,312,2,0,0,0,0,0,0,0,0,0,3,0,0,1,2,2,2,0,0,710,0,0,710,0
326,0,40,293,240,2,0,1,1,395,0,0,0,0,0,0,0,1,0,1,2,0,0,0,0,0,1,0,1,978,0,3,981,0
327,1,15,186,79,0,1,2,0,129,1,0,0,0,1,0,0,0,0,0,0,0,0,0,0,0,1,0,0,416,0,10,426,0
328,2,23,238,137,0,0,1,0,191,2,0,0,1,2,0,0,0,0,0,0,0,0,0,0,0,1,0,2,600,0,2,602,0
329,2,39,353,269,2,1,2,1,302,0,0,0,1,1,1,2,0,1,0,0,0,0,0,0,0,0,0,0,977,0,0,977,0
330,0,8,52,35,0,0,0,0,40,0,0,0,0,0,1,0,0,0,0,0,0,0,0,0,0,0,0,0,136,0,0,136,0
331,2,22,110,176,1,0,1,0,264,1,0,0,0,0,0,0,0,0,0,2,0,1,1,0,0,0,0,0,581,0,5,586,0
332,1,40,168,192,0,0,1,0,350,1,0,0,0,0,0,0,1,0,0,2,0,0,0,0,0,0,0,0,756,0,5,761,0
333,3,29,99,111,1,0,0,1,230,0,1,0,0,0,0,0,1,0,0,1,0,0,0,0,0,0,0,0,477,0,1,478,0
334,1,34,167,167,2,0,1,2,335,1,0,0,0,2,1,1,0,0,0,0,2,0,0,0,0,0,1,0,717,0,5,722,0
335,0,15,228,98,0,0,1,0,138,0,0,0,0,0,0,0,1,1,2,1,0,0,0,0,0,0,1,0,486,0,3,489,0
336,5,20,235,159,3,1,1,0,236,0,0,0,2,1,0,1,1,2,0,1,0,0,0,0,0,0,0,1,669,0,5,674,0
337,1,26,263,186,0,0,0,0,227,1,0,0,1,0,0,0,0,1,2,3,1,0,0,0,0,0,1,0,713,0,1,714,0
338,1,11,142,131,3,1,0,0,234,0,0,0,0,2,0,0,0,0,1,1,0,0,0,2,1,0,0,0,530,0,3,533,0
339,2,18,132,147,0,1,0,0,198,0,0,0,0,0,0,0,0,1,0,2,0,0,1,0,0,0,0,0,502,0,4,506,0
340,0,22,175,212,1,0,1,0,192,2,0,0,0,0,0,0,0,0,0,0,0,0,0,0,0,0,0,0,605,0,3,608,0
341,0,20,116,187,2,2,0,0,226,0,0,0,1,2,0,0,0,0,0,0,0,0,0,1,0,0,0,0,557,0,4,561,0
342,1,12,114,162,0,0,2,1,116,1,0,0,0,0,0,0,2,0,0,0,0,0,0,0,0,0,0,1,412,0,5,417,0
343,0,6,129,173,0,0,0,1,157,0,0,0,0,0,0,2,0,0,0,0,0,0,0,0,0,0,1,0,469,0,9,478,0
344,2,17,117,172,2,0,0,0,242,0,0,0,0,1,0,0,0,0,2,1,0,0,0,0,1,1,0,1,559,0,3,562,0
345,2,16,118,194,1,0,0,1,177,0,0,0,1,1,1,1,1,0,0,1,0,0,0,1,1,0,0,0,517,0,3,520,0
346,1,19,157,146,1,2,1,0,210,0,0,0,0,0,1,1,2,0,0,2,0,0,0,0,0,0,0,0,543,0,9,552,0
347,0,12,162,226,0,1,0,1,151,1,0,0,0,0,0,0,0,0,0,1,0,0,0,0,0,0,0,0,555,0,9,564,0
348,1,35,248,183,0,0,1,1,269,1,0,0,0,0,0,0,1,0,0,1,0,0,0,1,0,0,0,0,742,0,10,752,0
349,2,23,142,162,1,1,0,0,227,0,0,0,0,0,1,0,1,2,1,0,1,0,0,0,0,0,1,0,565,0,6,571,0
350,1,31,160,178,0,0,0,0,209,0,0,0,0,1,0,1,0,0,0,0,0,1,1,0,0,1,0,1,585,0,9,594,0
351,1,9,120,148,1,0,0,0,147,2,0,0,0,3,0,1,0,0,1,0,0,0,0,0,1,0,0,1,435,0,6,441,0
352,1,12,184,127,3,0,2,2,208,0,0,0,0,0,0,1,1,0,1,2,0,0,0,1,0,0,1,1,547,0,4,551,0
353,3,20,170,156,0,0,0,2,257,0,1,0,1,0,0,1,0,0,1,1,0,0,0,0,0,0,0,1,614,0,4,618,0
