Polling Station No,KADAMBUR RAJU.C,KARUNANITHI.K,PANDI.P,RAMACHANDRAN.R,ARUMUGAVEL.T,KANNAN.S,SARAVANAN.S,BALASUBRAMANIAN.S,HARI BALAKRISHNAN.G,ATHIKUMAR KUDUMBAR.B,GUNASEKARAN.P,GURUSAMY.K,CHINNA MAHARAJA.K,SEKAR.C,PARAMASIVAN.S,POUNDURAI.K,PANDIMUNEESWARI.K,PREMKUMAR.K,PONNUSAMY.M,MUNEESWARAN.R,RENGANAYAGALU.S,Total Valid Votes,Rejected Votes,NOTA,Total,Tendered Votes
1,181,236,47,1,1,6,2,122,0,4,0,0,0,1,0,2,1,2,0,0,1,607,0,2,609,0
2,124,104,1,0,0,0,0,71,0,0,0,0,0,0,2,0,3,5,0,0,2,312,0,0,312,0
3,251,120,8,0,0,8,0,146,0,0,0,1,0,0,1,4,1,0,1,0,0,541,0,3,544,0
4,186,236,44,1,0,0,3,290,1,14,0,0,0,2,1,3,3,1,0,0,0,785,0,0,785,0
5,97,248,55,0,1,0,0,214,0,0,0,0,0,1,2,1,1,0,0,1,0,621,0,3,624,0
6,165,108,33,0,1,6,7,147,0,1,0,0,0,0,0,1,1,0,0,0,1,471,0,0,471,0
7,101,276,51,0,0,0,4,266,0,0,0,0,0,1,0,0,1,0,0,0,0,700,0,7,707,0
8,223,195,39,0,0,2,2,249,0,5,1,0,0,2,1,2,0,0,0,0,0,721,0,1,722,0
9,165,428,36,1,0,0,1,375,1,1,1,0,2,1,2,4,6,1,0,1,2,1028,0,1,1029,0
10,135,152,33,0,0,2,2,183,0,0,1,0,0,0,0,1,0,0,0,0,0,509,0,1,510,0
11,146,161,25,1,0,1,0,158,0,0,0,1,0,1,2,0,3,1,0,0,0,500,0,0,500,0
12,199,240,40,0,0,4,1,227,1,0,0,0,1,0,0,2,1,1,2,1,0,720,0,4,724,0
13,213,225,47,0,1,4,1,270,0,1,1,0,0,2,1,1,0,3,0,0,0,770,0,2,772,0
14,220,210,65,1,0,2,3,356,2,0,0,1,0,2,2,3,1,1,0,1,1,871,0,1,872,0
15,257,126,29,0,0,0,6,161,1,0,0,0,0,0,0,0,0,1,0,0,0,581,0,2,583,0
16,139,76,12,0,1,0,1,165,0,0,1,0,0,0,1,1,1,0,0,1,0,399,0,2,401,0
17,349,161,23,2,0,4,1,265,0,0,0,0,0,0,0,0,3,1,0,0,0,809,0,2,811,0
18,281,297,56,1,1,2,7,283,0,0,1,0,0,0,2,1,4,1,0,0,0,937,0,1,938,0
19,220,338,42,0,0,5,0,147,0,7,0,0,0,0,0,2,1,1,0,0,0,763,0,2,765,0
20,97,215,38,1,0,1,1,153,0,6,0,0,0,0,0,0,2,1,0,0,1,516,0,0,516,0
21,280,82,6,0,0,0,0,82,0,0,0,0,0,0,1,4,1,1,0,0,1,458,0,1,459,0
22,401,141,14,0,0,0,0,179,0,0,0,0,0,0,0,0,0,1,0,0,0,736,0,2,738,0
23,166,223,53,0,0,3,0,192,1,1,1,0,0,0,2,1,5,2,1,1,0,652,0,0,652,0
24,87,363,39,4,0,4,3,240,0,0,0,0,1,1,0,5,3,1,1,0,0,752,0,2,754,0
25,255,236,41,1,0,0,1,207,1,7,0,2,0,1,4,3,2,1,0,0,1,763,0,4,767,0
26,125,191,33,1,0,4,2,163,0,0,0,0,11,1,2,2,4,2,0,0,1,542,0,3,545,0
27,219,285,69,3,0,5,1,316,2,2,0,0,3,1,0,2,1,1,0,1,0,911,0,1,912,0
28,90,125,38,0,0,2,3,176,0,5,1,0,0,1,0,1,0,0,0,0,0,442,0,4,446,0
29,102,199,46,0,0,2,0,180,2,3,0,0,0,1,3,0,1,2,0,0,0,541,0,0,541,0
30,208,148,74,0,0,0,0,83,0,26,0,2,1,1,1,2,2,2,2,0,0,552,0,2,554,0
31,149,257,89,1,1,1,0,168,2,22,0,0,1,0,3,2,2,1,0,0,1,700,0,3,703,0
32,286,180,25,0,0,0,2,236,0,0,0,0,0,2,0,2,0,1,0,0,1,735,0,2,737,0
33,111,128,14,0,1,0,0,84,0,1,0,0,0,0,0,0,1,6,0,0,1,347,0,2,349,0
34,343,209,33,0,0,1,0,221,0,7,1,0,1,2,0,2,2,4,1,1,0,828,0,3,831,0
35,160,281,28,0,0,0,1,289,0,2,0,0,0,0,2,2,6,4,0,1,0,776,0,2,778,0
36,126,191,25,1,0,1,1,183,0,2,0,1,0,1,0,0,2,3,0,0,1,538,0,2,540,0
37,135,113,22,1,0,1,0,144,0,0,0,0,0,0,0,1,0,1,1,0,0,419,0,0,419,0
38,176,203,22,0,0,5,2,158,0,6,0,0,0,0,2,2,4,3,0,0,1,584,0,1,585,0
39,128,154,14,0,1,1,2,70,0,1,0,0,0,0,1,1,1,4,0,0,0,378,0,1,379,0
40,148,197,30,0,0,7,1,141,0,1,0,0,0,0,2,2,3,0,0,1,0,533,0,2,535,0
41,89,222,38,1,1,2,2,136,2,3,1,1,1,0,3,3,0,1,0,0,0,506,0,0,506,0
42,186,237,21,0,0,3,0,133,0,35,0,0,0,2,2,1,1,5,0,0,0,626,0,0,626,0
43,145,246,37,1,1,2,0,122,0,145,1,0,2,4,1,1,1,2,0,0,0,711,0,3,714,0
44,154,292,61,4,0,3,0,108,2,33,0,0,1,0,4,2,2,1,0,0,0,667,0,1,668,0
45,91,419,39,2,0,3,0,160,0,28,0,0,0,0,0,0,1,0,0,0,0,743,0,1,744,0
46,106,227,40,0,1,3,0,69,0,20,0,0,0,0,3,0,0,0,0,0,0,469,0,0,469,0
47,59,538,24,0,0,11,2,80,0,1,0,2,0,1,4,1,0,2,0,0,0,725,0,3,728,0
48,97,237,56,3,0,5,0,81,0,8,0,0,0,1,1,1,1,2,3,0,0,496,0,0,496,0
49,366,193,83,0,1,2,2,169,1,1,0,1,2,4,4,9,4,1,0,2,1,846,0,1,847,0
50,272,233,71,0,0,1,0,121,0,2,0,0,0,2,3,4,3,1,1,0,1,715,0,2,717,0
51,118,293,46,1,0,6,0,125,1,1,0,4,0,2,2,0,4,7,1,0,1,612,0,5,617,0
52,122,331,31,1,0,1,4,192,2,1,2,3,3,2,4,4,1,2,0,1,0,707,0,2,709,0
53,166,251,75,1,0,8,0,229,1,2,0,1,1,7,4,2,0,0,1,0,0,749,0,1,750,0
54,95,211,26,0,0,2,2,141,2,0,1,1,2,1,5,4,2,3,0,0,0,498,0,3,501,0
55,88,335,35,0,0,5,0,104,0,0,0,1,1,2,3,3,2,4,0,0,3,586,0,1,587,0
56,46,497,31,0,0,1,1,56,1,0,0,0,0,0,1,0,1,4,0,0,1,640,0,2,642,0
57,199,298,29,0,0,2,3,89,0,1,0,1,0,2,1,7,0,1,0,0,2,635,0,1,636,0
58,66,236,40,1,0,0,1,143,0,61,0,1,0,4,2,1,0,3,0,0,0,559,0,3,562,0
59,197,200,49,1,0,5,2,119,0,2,1,0,1,3,2,1,0,1,0,1,0,585,0,1,586,0
60,245,124,40,0,0,0,4,253,3,65,0,1,3,2,2,10,2,2,1,1,1,759,0,2,761,0
61,76,156,24,0,0,0,0,69,0,21,1,1,1,2,0,1,0,0,0,0,0,352,0,1,353,0
62,322,88,17,1,0,2,2,142,1,11,1,0,0,3,1,0,4,0,0,1,1,597,0,0,597,0
63,169,121,33,0,0,2,1,111,0,160,1,0,0,4,0,0,0,0,0,0,0,602,0,0,602,0
64,98,95,23,0,0,1,1,108,0,197,1,0,0,3,0,2,0,1,0,0,2,532,0,0,532,0
65,223,214,56,1,0,9,0,203,1,69,0,0,0,0,0,1,0,0,1,0,1,779,0,4,783,0
66,52,202,25,0,0,3,1,134,1,182,0,0,0,3,1,3,2,0,0,0,0,609,0,7,616,0
67,83,127,14,0,0,0,0,104,0,4,2,0,0,0,1,1,0,0,0,0,0,336,0,0,336,0
68,184,104,52,1,0,0,2,149,4,535,1,4,2,4,2,10,2,1,0,0,2,1059,0,0,1059,0
69,175,217,37,0,0,0,1,188,0,0,0,1,2,1,0,3,1,1,0,0,0,627,0,1,628,0
70,138,200,33,0,0,0,1,176,0,0,0,1,0,0,0,1,0,0,1,0,1,552,0,2,554,0
71,141,223,49,1,0,1,0,178,0,2,0,0,0,0,0,1,0,1,0,0,0,597,0,0,597,0
72,218,187,40,0,0,0,0,150,0,0,0,0,0,0,0,1,2,0,0,0,0,598,0,3,601,0
73,174,193,32,0,0,0,0,109,0,2,0,1,0,0,1,3,1,1,0,0,0,517,0,1,518,0
74,296,154,32,1,0,1,2,125,0,1,0,0,0,0,1,4,4,1,0,1,0,623,0,4,627,0
75,44,422,14,0,1,0,0,75,0,0,0,0,0,0,0,0,3,0,0,0,0,559,0,0,559,0
76,40,382,19,0,0,0,0,44,0,0,0,1,0,0,0,1,0,1,0,0,0,488,0,0,488,0
77,ge14 31,196,34,0,0,3,1,172,0,0,0,0,0,2,1,1,0,1,0,0,0,554,0,1,555,0
78,187,60,17,0,1,0,0,71,1,0,0,0,0,0,0,1,1,1,0,0,0,340,0,0,340,0
79,205,296,54,1,0,0,1,298,0,4,1,1,0,2,3,3,0,1,0,0,2,872,0,1,873,0
80,91,105,34,0,0,1,1,116,0,108,0,1,1,2,2,4,0,0,0,0,0,466,0,1,467,0
81,120,51,41,0,0,0,1,67,0,60,0,0,0,0,0,0,0,0,0,0,0,340,0,0,340,0
82,250,348,109,2,0,1,1,223,0,6,0,0,0,1,2,0,3,3,2,0,0,951,0,1,952,0
83,194,243,40,0,0,1,0,128,1,14,0,0,0,0,1,1,1,1,0,0,0,625,0,1,626,0
84,156,202,34,0,0,1,1,75,1,3,0,0,0,0,1,1,2,1,0,0,0,478,0,0,478,0
85,238,170,42,0,0,3,1,156,0,8,1,0,2,0,1,4,0,0,0,0,0,626,0,1,627,0
86,254,198,41,1,0,1,1,158,0,19,0,0,0,0,0,0,0,0,0,0,0,673,0,1,674,0
87,219,117,36,2,0,0,0,87,0,14,0,1,0,1,1,2,2,0,0,0,0,482,0,1,483,0
88,53,130,37,4,0,0,3,47,1,123,0,1,2,1,2,7,1,2,2,1,1,418,0,2,420,0
89,151,327,22,1,0,0,1,46,0,13,0,0,0,1,1,0,2,1,0,1,0,567,0,1,568,0
90,192,290,79,0,1,11,3,230,0,0,1,1,2,0,9,6,0,3,0,0,0,828,0,1,829,0
91,221,193,11,1,0,0,0,98,1,0,2,1,1,0,0,8,5,1,0,1,0,544,0,0,544,0
92,179,75,22,0,0,2,0,83,0,1,0,0,0,0,0,1,0,4,0,0,0,367,0,0,367,0
93,216,166,41,0,0,2,1,78,1,27,0,0,0,1,0,6,0,3,0,0,2,544,0,4,548,0
94,258,141,11,1,0,0,0,76,0,3,0,0,0,1,1,0,2,1,0,0,0,495,0,2,497,0
95,216,189,16,0,0,0,0,68,0,2,0,0,0,0,3,2,1,1,0,0,0,498,0,3,501,0
96,273,313,69,2,0,0,4,266,0,11,0,3,2,2,5,6,4,5,0,0,1,966,0,5,971,0
97,199,393,32,1,1,10,1,127,1,0,0,0,1,1,1,4,1,3,0,0,0,776,0,1,777,0
98,314,126,36,1,0,2,2,122,1,4,1,3,0,2,3,2,2,2,0,0,0,623,0,0,623,0
99,159,295,20,0,0,1,0,106,0,6,0,1,0,0,3,1,1,3,0,0,1,597,0,0,597,0
100,152,128,21,0,0,0,0,91,1,14,0,0,0,0,4,3,3,1,0,0,0,418,0,0,418,0
101,270,229,44,6,2,0,2,203,0,7,1,0,0,1,2,1,3,2,0,1,1,775,0,2,777,0
102,276,324,51,7,1,2,3,236,0,7,0,0,0,0,3,2,0,2,1,0,1,916,0,5,921,0
103,471,113,23,1,0,0,1,112,1,0,0,0,0,0,1,7,6,6,1,0,0,743,0,1,744,0
104,410,58,3,0,0,0,0,61,0,1,0,0,0,0,0,2,1,13,0,0,3,552,0,1,553,0
105,276,324,47,0,2,3,0,201,0,10,0,0,0,1,0,1,1,10,1,0,1,878,0,2,880,0
106,201,173,13,0,0,0,0,116,0,0,0,0,0,0,0,0,1,1,0,0,1,506,0,2,508,0
107,249,182,26,0,0,1,1,243,1,3,0,1,0,0,3,2,2,1,0,0,2,717,0,2,719,0
108,305,179,36,0,0,1,0,142,0,3,0,0,0,0,0,0,3,2,0,0,0,671,0,2,673,0
109,174,245,22,0,0,1,3,156,0,5,0,0,0,1,3,1,2,7,0,0,0,620,0,3,623,0
110,281,140,26,0,0,0,0,102,0,4,0,0,0,0,0,2,2,0,0,0,0,557,0,0,557,0
111,299,192,62,2,1,0,1,270,3,0,0,0,2,0,1,2,1,3,1,0,0,840,0,1,841,0
112,298,211,53,1,1,1,1,245,0,4,0,0,0,0,0,2,1,0,0,0,0,818,0,3,821,0
113,233,152,50,0,0,2,2,257,1,0,0,0,0,0,0,4,2,1,1,0,2,707,0,0,707,0
114,256,144,52,0,0,3,1,230,2,2,0,0,0,1,0,2,4,0,0,0,0,697,0,3,700,0
115,178,185,55,1,0,2,3,403,1,2,0,0,0,2,3,2,1,0,1,0,0,839,0,2,841,0
116,196,149,50,0,0,1,1,266,0,2,0,0,0,1,0,4,2,3,0,0,0,675,0,0,675,0
117,154,272,74,1,0,2,2,303,1,3,0,1,0,0,2,0,2,2,0,0,0,819,0,1,820,0
118,145,231,47,1,0,1,1,207,1,0,0,1,0,0,0,1,1,1,0,0,0,638,0,0,638,0
119,238,283,64,0,0,0,0,288,0,10,0,0,0,1,1,1,1,0,0,0,2,889,0,1,890,0
120,245,242,52,0,1,0,1,253,2,10,0,0,0,1,2,2,3,2,0,1,0,817,0,1,818,0
121,197,154,46,0,0,1,0,234,3,3,0,0,0,0,2,2,1,2,0,0,0,645,0,1,646,0
122,233,133,39,0,0,1,2,238,2,4,1,1,0,0,2,1,1,1,1,0,1,661,0,1,662,0
123,157,131,43,0,0,1,2,295,0,9,0,1,0,1,0,1,1,1,0,2,0,645,0,7,652,0
124,355,223,51,1,0,1,1,280,3,8,0,1,0,0,0,1,0,3,0,0,0,928,0,4,932,0
125,147,186,28,0,0,6,1,166,2,2,0,0,1,0,0,2,5,0,0,0,0,546,0,1,547,0
126,317,129,25,0,0,0,2,173,0,2,0,0,0,0,0,0,0,0,0,0,0,648,0,6,654,0
127,237,287,82,0,0,0,0,235,1,15,0,1,0,0,0,0,1,1,0,0,0,860,0,1,861,0
128,195,168,29,2,0,1,0,242,0,4,0,0,0,0,0,2,0,0,0,0,0,643,0,7,650,0
129,329,122,24,0,0,0,2,232,0,0,0,0,0,0,0,0,1,1,0,0,1,712,0,4,716,0
130,229,90,9,0,0,0,2,102,1,0,0,0,1,0,0,1,1,0,0,0,0,436,0,1,437,0
131,174,66,6,0,0,1,0,105,0,0,0,0,0,0,0,0,0,0,0,0,0,352,0,4,356,0
132,296,98,37,0,0,3,0,201,0,0,0,1,0,1,0,0,1,1,0,0,1,640,0,2,642,0
133,318,146,34,1,0,2,0,240,0,0,0,1,1,0,0,0,1,0,0,0,0,744,0,2,746,1
134,178,62,6,0,0,1,0,132,0,0,0,1,0,0,0,1,0,1,0,0,0,382,0,4,386,0
135,146,115,19,0,0,0,1,184,1,0,0,0,0,0,0,0,0,1,0,0,0,467,0,4,471,0
136,115,82,20,0,0,1,0,138,0,1,0,0,0,0,0,0,0,0,0,0,1,358,0,0,358,0
137,261,118,22,0,1,1,1,223,0,0,0,0,0,0,0,0,1,1,0,0,0,629,0,3,632,0
138,189,101,36,1,0,1,0,248,0,2,0,0,1,0,0,0,1,2,0,0,0,582,0,1,583,0
139,162,121,20,2,0,5,1,197,0,0,0,0,0,0,0,0,1,1,0,1,0,511,0,1,512,0
140,172,337,28,0,0,2,0,160,0,0,0,1,0,0,0,0,1,0,1,0,0,702,0,1,703,0
141,152,282,35,0,0,2,1,175,0,0,0,0,0,0,0,0,0,2,0,1,0,650,0,0,650,0
142,101,219,15,0,0,0,0,87,0,0,0,0,0,0,1,0,1,1,0,0,0,425,0,0,425,0
143,133,156,17,0,0,0,2,94,0,1,0,1,0,0,0,1,3,1,0,0,0,409,0,0,409,0
144,141,109,9,0,0,0,0,72,0,0,0,2,0,0,1,1,1,0,0,0,0,336,0,1,337,1
145,251,85,17,0,0,0,0,91,0,0,0,0,0,0,0,0,0,0,0,0,0,444,0,5,449,0
146,97,77,3,1,0,0,0,74,0,1,0,0,0,1,0,0,0,0,0,1,1,256,0,3,259,0
147,117,253,13,0,0,1,1,137,0,0,1,0,0,0,1,1,1,2,0,0,0,528,0,0,528,0
148,214,149,17,0,0,1,3,109,0,0,1,1,0,1,1,2,1,0,0,0,0,500,0,1,501,0
149,198,280,57,0,0,4,1,203,0,23,0,1,1,0,1,0,4,2,0,0,0,775,0,1,776,0
150,118,232,27,0,0,3,0,157,0,0,0,1,0,0,0,0,0,0,0,0,0,538,0,1,539,0
151,144,158,30,0,0,3,0,160,1,0,0,0,0,0,2,1,0,0,0,0,0,499,0,0,499,0
152,121,108,23,0,0,1,1,244,1,1,1,0,0,0,0,1,0,1,0,1,0,504,0,3,507,0
153,122,97,29,1,0,2,0,222,0,0,0,0,0,0,0,2,0,0,1,0,1,477,0,1,478,0
154,ge17 42,180,42,2,0,2,1,318,2,0,0,1,0,1,0,1,2,1,0,0,0,727,0,2,729,0
155,68,111,22,1,0,7,0,164,1,0,0,0,0,1,0,0,0,0,0,0,0,375,0,1,376,0
156,81,315,36,1,1,0,0,221,0,0,0,0,0,3,0,3,0,2,0,0,0,663,0,1,664,0
157,60,211,18,1,0,1,0,128,0,0,0,0,1,0,0,1,1,1,0,0,0,423,0,1,424,0
158,59,314,23,0,0,0,0,164,1,1,0,0,0,0,3,1,0,0,0,1,0,567,0,2,569,0
159,77,247,32,0,0,3,0,194,1,0,0,1,1,0,1,1,3,0,0,0,0,561,0,0,561,0
160,112,206,25,1,0,1,1,192,1,0,0,0,0,1,2,0,0,1,0,1,0,544,0,2,546,0
161,135,175,55,0,0,0,1,138,2,24,0,0,0,0,1,2,1,1,0,0,0,535,0,1,536,0
162,116,232,62,0,0,0,0,202,1,7,1,1,0,0,0,0,0,0,0,0,1,623,0,2,625,0
163,151,321,76,1,0,2,1,291,3,20,0,2,0,2,3,0,2,5,0,0,0,880,0,1,881,0
164,104,144,54,0,0,1,1,167,2,13,0,0,0,0,2,2,2,2,0,0,0,494,0,0,494,0
165,167,311,77,1,0,4,1,278,1,0,0,0,0,0,1,1,2,0,0,0,0,844,0,2,846,0
166,163,309,75,0,1,0,0,273,0,0,0,1,0,2,1,1,1,1,0,0,1,829,0,4,833,0
167,338,78,14,0,0,2,0,193,1,0,1,0,0,1,0,3,1,1,0,0,0,633,0,1,634,0
168,106,185,33,2,0,0,0,245,0,7,0,0,0,0,0,0,1,0,0,0,0,579,0,0,579,0
169,122,201,21,0,0,0,1,218,0,1,1,0,0,0,0,0,3,3,0,0,0,571,0,1,572,0
170,79,91,22,0,0,1,0,129,0,1,0,0,0,1,0,0,0,1,0,0,0,325,0,2,327,0
171,115,138,19,1,0,0,4,185,0,1,0,0,0,0,0,2,0,1,0,0,0,466,0,1,467,0
172,126,203,57,1,0,1,2,271,0,15,0,0,0,0,0,1,2,0,0,0,0,679,0,2,681,0
173,154,175,38,0,0,0,2,211,0,1,0,0,0,0,0,1,0,0,0,0,0,582,0,3,585,0
174,96,108,35,1,0,2,1,190,0,3,0,0,0,0,0,0,2,0,0,0,0,438,0,1,439,0
175,99,87,19,0,0,0,0,116,0,0,0,0,0,0,0,0,0,0,1,0,0,322,0,3,325,0
176,125,218,46,0,0,7,1,185,0,0,1,0,0,1,1,0,0,0,0,0,0,585,0,1,586,0
177,106,214,22,1,0,1,1,192,0,21,1,0,0,0,1,0,0,0,0,0,0,560,0,3,563,0
178,81,206,51,0,0,0,0,267,1,22,0,0,0,0,2,0,0,0,0,1,0,631,0,2,633,0
179,56,197,39,0,0,0,0,166,0,31,0,0,0,0,3,0,0,0,0,0,0,492,0,4,496,0
180,139,176,26,0,0,8,0,187,0,0,0,0,0,0,0,0,1,2,0,0,0,539,0,1,540,0
181,116,250,30,1,0,9,0,151,1,0,0,0,0,0,2,2,1,3,0,1,1,568,0,2,570,0
182,98,220,23,1,0,8,0,80,0,0,0,0,1,0,1,2,2,1,1,0,1,439,0,2,441,0
183,148,397,96,1,0,1,0,271,2,38,0,0,1,3,4,2,0,1,1,1,0,967,0,3,970,0
184,138,334,76,2,0,0,2,206,0,20,0,0,0,0,0,0,0,1,1,0,0,780,0,1,781,0
185,148,297,85,1,0,0,0,277,1,41,0,1,0,0,2,3,1,3,1,1,1,863,0,2,865,0
186,135,304,16,0,0,1,1,205,2,0,0,0,0,0,2,2,2,0,0,0,0,670,0,1,671,0
187,188,254,18,1,0,0,1,204,1,0,0,0,2,0,0,1,1,0,0,0,2,673,0,2,675,0
188,137,284,28,0,1,6,5,255,0,0,0,0,0,1,3,0,0,1,1,1,0,723,0,7,730,0
189,181,302,48,0,1,1,15,331,0,1,1,0,0,0,0,1,0,2,0,0,1,885,0,2,887,0
190,208,230,58,0,1,2,23,392,1,0,1,0,1,1,1,2,1,0,1,1,0,924,0,3,927,0
191,109,163,49,1,0,1,10,271,1,1,0,0,0,2,1,2,1,0,0,0,0,612,0,2,614,0
192,206,235,44,0,0,0,4,259,0,0,0,1,0,0,0,0,2,1,0,0,0,752,0,3,755,0
193,234,273,35,1,0,3,0,303,0,0,0,0,0,0,1,0,1,0,0,0,0,851,0,1,852,0
194,212,271,53,1,0,3,6,269,0,1,0,1,0,0,1,4,0,0,1,0,0,823,0,2,825,0
195,222,227,79,2,0,0,0,188,0,7,0,0,0,1,0,2,2,0,6,0,0,736,0,3,739,0
196,229,228,37,0,0,2,2,239,0,2,0,1,1,0,3,3,1,2,1,2,0,753,0,1,754,0
197,203,240,58,2,1,0,2,291,0,1,0,0,1,1,1,1,2,3,0,0,0,807,0,1,808,0
198,235,273,89,2,0,0,1,264,2,0,0,0,0,1,1,2,0,1,1,0,0,872,0,1,873,0
199,32,201,18,1,0,0,0,108,1,0,0,0,0,0,0,0,0,0,0,0,0,361,0,2,363,0
200,46,343,13,1,0,0,0,157,1,0,0,0,0,0,0,0,0,0,1,0,0,562,0,0,562,0
201,108,126,20,0,0,0,3,270,0,0,0,1,0,0,0,0,1,0,0,0,0,529,0,0,529,0
202,88,79,10,2,0,1,0,147,0,0,0,1,0,1,1,0,0,0,0,0,0,330,0,1,331,0
203,130,161,30,2,0,1,0,190,1,0,0,1,0,0,2,0,2,1,1,0,0,522,0,0,522,0
204,138,144,24,1,0,3,1,280,0,1,0,0,0,0,1,1,0,0,0,0,0,594,0,2,596,0
205,78,205,29,0,0,1,1,241,0,0,0,0,0,0,1,3,1,1,0,0,0,561,0,0,561,0
206,107,179,17,1,0,5,1,203,0,1,1,1,0,1,2,0,0,0,0,0,0,519,0,4,523,0
207,182,233,52,1,0,3,2,354,1,0,1,0,2,2,0,2,2,2,0,0,1,840,0,3,843,1
208,151,158,31,0,0,1,1,297,1,0,1,0,1,1,0,0,0,0,0,0,0,643,0,3,646,0
209,140,174,30,1,0,1,1,274,0,0,0,0,0,0,1,2,0,0,1,2,0,627,0,1,628,0
210,154,206,35,0,0,0,0,306,0,0,0,0,0,0,0,1,1,1,0,0,0,704,0,3,707,0
211,130,194,33,0,1,0,0,268,0,0,0,0,0,0,1,1,0,0,1,0,0,629,0,2,631,0
212,100,90,29,0,0,0,1,148,0,0,0,0,1,0,0,0,0,0,0,0,0,369,0,5,374,0
213,170,268,63,0,0,3,0,345,0,0,0,0,1,0,0,0,1,1,0,0,1,853,0,1,854,0
214,139,203,27,0,0,2,1,176,1,1,0,0,0,0,0,0,0,0,0,1,0,551,0,2,553,0
215,130,139,30,0,1,0,0,207,0,3,0,0,0,0,0,0,8,2,0,1,0,521,0,0,521,0
216,117,152,27,2,0,0,1,205,0,0,0,0,0,0,0,1,0,1,0,0,0,506,0,3,509,0
217,102,111,17,0,0,1,1,193,0,0,0,1,0,2,0,0,0,0,0,0,0,428,0,3,431,0
218,90,168,26,0,0,1,1,132,1,5,0,0,0,1,1,0,1,0,0,0,0,427,0,2,429,0
219,147,115,28,2,0,0,0,152,0,0,0,0,0,0,0,0,1,0,0,0,0,445,0,2,447,0
220,116,102,20,1,0,0,0,143,0,0,0,0,0,0,0,1,0,0,0,0,0,383,0,1,384,0
221,84,126,31,0,0,0,0,131,0,1,0,1,0,0,0,1,0,0,0,0,0,375,0,1,376,0
222,206,204,42,0,0,1,1,309,0,0,0,0,0,0,0,0,0,0,0,0,0,763,0,2,765,0
223,139,148,28,0,0,0,1,207,0,1,0,0,0,0,1,0,0,1,0,0,0,526,0,3,529,0
224,201,133,41,2,1,0,0,297,0,0,1,0,0,0,0,0,1,3,0,1,0,681,0,3,684,0
225,264,149,58,1,0,0,1,297,0,1,0,2,0,1,0,1,3,1,0,0,0,779,0,3,782,0
226,241,205,59,0,0,0,1,318,0,0,0,0,0,0,1,0,1,1,0,0,0,827,0,3,830,0
227,118,138,28,1,0,0,0,206,0,1,0,0,0,1,0,0,0,0,0,0,1,494,0,2,496,0
228,97,114,23,1,0,0,0,168,1,1,0,0,1,1,0,1,0,0,0,0,0,408,0,1,409,0
229,119,163,38,0,0,0,0,231,0,0,0,1,0,0,0,0,0,0,1,0,0,553,0,5,558,0
230,99,99,14,0,1,0,3,110,2,0,0,1,1,0,0,0,0,1,0,0,0,331,0,1,332,0
231,ge11 93,153,31,1,0,0,0,214,1,4,0,0,1,0,0,2,0,0,0,0,0,526,0,2,528,0
232,163,141,43,1,0,2,1,283,0,0,0,0,0,0,0,1,1,0,0,0,0,636,0,2,638,0
233,179,124,47,0,0,0,1,229,1,1,0,0,0,1,0,0,0,1,0,0,0,584,0,1,585,0
234,224,180,36,0,1,0,1,225,0,1,0,0,0,1,0,0,0,1,1,1,0,672,0,5,677,0
235,123,121,20,0,1,1,0,179,0,0,0,0,0,0,0,1,0,2,0,1,0,449,0,1,450,0
236,78,111,27,0,0,1,1,144,0,0,0,0,0,0,0,0,0,0,0,1,0,363,0,2,365,0
237,157,201,29,2,0,1,1,208,0,0,0,1,0,0,1,0,1,1,1,1,0,605,0,1,606,0
238,178,142,16,0,0,1,0,212,0,0,0,0,0,0,0,0,0,0,0,0,0,549,0,1,550,0
239,149,137,20,0,1,1,2,210,0,0,0,0,0,0,0,0,1,0,0,0,0,521,0,0,521,0
240,156,120,20,0,0,0,1,217,0,0,0,0,0,0,0,1,0,1,0,1,0,517,0,1,518,0
241,236,158,43,1,0,1,0,256,2,1,0,0,0,0,0,0,0,0,0,0,0,698,0,2,700,0
242,226,120,28,0,0,0,0,191,0,0,0,0,1,0,0,2,0,0,0,0,0,568,0,2,570,0
243,113,133,19,0,0,0,3,200,0,0,0,0,1,0,0,1,1,0,0,0,1,472,0,2,474,0
244,71,120,23,0,0,0,3,118,0,2,0,0,0,0,0,0,0,1,0,0,0,338,0,1,339,0
245,85,142,30,2,0,0,2,163,0,2,0,0,0,0,1,0,0,0,1,1,0,429,0,2,431,0
246,122,255,49,1,0,3,1,259,0,5,0,1,0,0,1,3,0,2,1,0,0,703,0,2,705,0
247,97,183,33,1,0,0,1,197,0,5,0,1,1,0,0,0,2,2,0,0,0,523,0,2,525,2
248,87,157,24,1,0,2,1,159,1,0,0,0,0,0,0,0,0,1,1,1,0,435,0,4,439,0
249,190,182,71,1,0,0,1,260,0,0,0,1,1,0,1,1,0,2,1,0,0,712,0,5,717,0
250,131,190,46,1,0,0,3,289,0,2,0,1,0,1,0,0,0,0,0,1,0,665,0,3,668,0
251,185,175,57,0,1,1,0,300,0,0,0,0,0,3,1,2,2,1,0,0,0,728,0,1,729,0
252,205,149,35,1,0,0,0,296,0,0,0,0,0,0,0,0,1,0,1,0,0,688,0,4,692,0
253,200,164,50,1,0,2,0,209,0,3,0,0,0,0,0,1,0,0,0,0,0,630,0,1,631,0
254,146,184,57,1,0,0,0,262,0,0,0,1,0,0,0,0,0,0,0,1,0,652,0,11,663,0
255,69,175,18,1,0,1,2,386,2,1,0,0,0,2,1,1,0,0,0,0,0,659,0,0,659,0
256,56,154,25,0,1,0,0,190,0,4,0,1,1,0,0,1,0,0,0,1,0,434,0,1,435,0
257,121,223,40,0,0,0,0,263,1,16,0,0,0,0,1,3,3,0,0,0,1,672,0,3,675,0
258,113,231,18,0,0,2,3,289,1,11,0,0,0,0,0,2,0,0,1,2,0,673,0,7,680,0
259,110,63,22,0,0,0,0,166,0,0,0,0,0,0,0,0,1,0,0,0,0,362,0,0,362,0
260,128,136,24,0,1,0,1,162,0,1,0,0,0,0,0,0,1,0,0,0,1,455,0,0,455,0
261,174,231,49,0,0,1,1,288,0,1,0,0,0,0,0,1,0,0,0,0,0,746,0,6,752,0
262,160,73,23,0,1,0,1,155,0,0,0,0,1,0,0,0,1,0,1,0,0,416,0,3,419,0
263,188,91,21,0,0,1,0,120,0,3,0,0,0,0,0,0,1,1,0,0,0,426,0,5,431,0
264,146,105,31,1,1,1,0,171,1,0,0,0,1,0,0,1,1,0,1,0,0,461,0,1,462,0
265,133,109,20,0,0,0,1,181,0,1,1,0,0,0,0,0,0,1,0,0,0,447,0,1,448,0
266,136,206,30,0,0,3,1,217,0,0,0,0,0,1,0,1,0,3,1,0,0,599,0,1,600,0
267,128,281,45,1,1,2,4,240,1,0,0,0,1,0,1,0,2,1,1,0,0,709,0,1,710,0
268,200,176,33,1,0,1,5,251,1,0,0,0,0,0,0,1,0,0,0,0,0,669,0,0,669,0
269,192,149,25,0,0,1,0,166,0,0,0,0,0,0,0,0,0,1,0,0,1,535,0,1,536,0
270,60,84,12,0,0,0,0,81,0,0,0,0,0,0,1,0,0,1,0,0,0,239,0,0,239,0
271,135,148,32,0,0,1,0,236,0,0,0,0,0,0,1,0,1,0,0,1,0,555,0,0,555,1
272,129,102,26,0,0,0,0,196,0,1,0,0,0,0,0,0,0,0,0,0,0,454,0,4,458,0
273,189,167,51,0,0,0,3,289,1,0,0,0,0,1,0,3,3,1,0,1,0,709,0,4,713,0
274,110,88,12,2,0,1,0,144,0,4,0,1,0,2,0,0,1,1,0,0,0,366,0,0,366,0
275,111,149,41,0,1,0,2,251,0,10,0,1,1,1,0,1,0,0,0,0,0,569,0,1,570,0
276,91,194,46,1,0,0,0,235,0,4,0,0,0,1,0,2,2,0,1,1,0,578,0,4,582,0
277,110,204,63,2,0,0,1,318,1,23,0,0,0,2,1,2,0,0,0,1,0,728,0,3,731,0
278,97,85,19,0,0,0,0,116,1,2,0,0,1,0,0,0,0,2,0,0,0,323,0,1,324,0
279,84,109,28,0,0,0,1,166,0,0,0,0,0,0,0,0,0,0,0,0,0,388,0,0,388,0
280,103,79,37,0,0,0,1,174,0,1,1,0,0,0,0,0,1,0,0,1,0,398,0,0,398,0
281,90,99,20,0,0,0,0,105,0,0,0,0,0,0,0,0,0,0,0,0,0,314,0,3,317,0
282,116,85,25,1,0,0,0,133,0,0,0,0,0,0,1,0,0,0,0,0,0,361,0,2,363,0
283,125,119,21,0,0,0,3,180,0,2,0,0,0,0,0,1,0,0,0,0,0,451,0,3,454,0
284,84,135,25,2,1,1,0,148,0,6,0,0,0,0,0,0,0,0,0,0,0,402,0,1,403,0
285,131,126,39,0,0,1,0,193,1,7,0,0,0,0,0,0,0,0,0,0,0,498,0,5,503,0
286,130,104,35,1,0,0,0,325,1,4,0,0,0,0,0,0,1,1,0,0,0,602,0,3,605,0
287,158,153,36,1,0,0,2,252,0,3,0,0,0,0,0,0,1,1,0,1,0,608,0,2,610,0
288,105,104,23,0,0,0,0,190,0,0,0,0,0,1,0,1,0,0,0,0,0,424,0,0,424,0
289,92,71,19,0,0,1,0,142,0,1,0,0,0,0,0,0,0,0,0,0,0,326,0,1,327,0
290,141,125,31,1,0,2,2,200,0,5,0,0,0,0,0,1,0,0,0,0,0,508,0,2,510,0
291,130,115,36,1,0,0,0,175,0,3,0,1,0,1,0,0,0,0,0,0,0,462,0,2,464,0
292,117,90,35,0,0,0,0,234,0,1,0,0,0,0,0,0,1,0,0,0,0,478,0,3,481,0
293,152,176,32,0,1,2,1,101,0,4,0,0,0,1,0,0,0,0,0,0,0,470,0,0,470,0
294,117,192,35,0,0,0,1,127,0,18,0,0,0,0,0,0,1,0,0,1,0,492,0,3,495,0
295,278,261,72,3,0,2,1,196,0,14,1,1,0,0,1,0,4,5,0,1,1,841,0,3,844,0
296,88,208,37,0,0,0,0,99,0,14,0,0,1,0,0,0,2,2,0,0,0,451,0,2,453,0
297,242,370,83,1,0,4,0,213,0,0,0,3,0,0,2,0,1,0,1,1,0,921,0,0,921,0
298,162,295,26,1,0,0,1,222,0,6,0,0,1,0,3,2,5,5,0,0,1,730,0,4,734,0
299,244,334,74,2,1,3,1,291,2,11,0,1,1,1,0,4,2,1,0,0,1,974,0,0,974,0
300,346,311,90,1,0,1,1,151,0,12,0,1,0,2,2,2,4,2,1,0,0,927,0,5,932,0
301,143,131,41,0,0,0,1,130,0,4,0,0,0,0,4,0,0,1,1,0,1,457,0,0,457,0
302,233,401,82,1,0,1,0,255,0,1,0,0,0,0,1,1,0,3,1,0,1,981,0,1,982,0
303,362,250,37,0,0,0,0,267,2,1,1,0,0,0,3,1,4,1,0,0,0,929,0,0,929,0
304,211,215,28,1,0,0,0,166,0,10,0,0,0,0,4,1,7,7,0,0,0,650,0,1,651,0
305,79,283,61,2,0,2,0,253,0,0,1,0,0,0,1,0,3,2,0,0,1,688,0,2,690,0
306,60,320,56,0,0,1,2,243,0,0,0,0,0,0,0,0,2,5,0,0,1,690,0,0,690,0
307,32,102,11,0,0,0,0,93,0,1,0,0,0,0,0,2,0,1,0,0,0,242,0,1,243,0
308,ge68 4,131,104,1,1,2,0,195,3,0,0,0,0,1,4,2,4,4,1,1,5,527,0,2,529,0
309,132,221,40,0,0,1,0,246,0,10,0,0,1,0,0,1,2,9,0,1,1,665,0,1,666,0
310,193,186,41,0,0,0,2,77,0,43,0,1,0,0,0,1,0,0,0,0,0,544,0,3,547,0
311,239,178,37,0,0,0,1,116,0,6,0,0,0,0,2,1,2,2,0,1,0,585,0,0,585,0
312,169,162,32,0,0,1,0,119,1,8,0,1,1,1,0,3,2,0,0,0,0,500,0,0,500,0
313,160,166,49,1,0,0,4,189,0,2,0,0,0,0,1,2,4,1,1,0,0,580,0,1,581,0
314,125,188,41,0,0,0,1,119,1,7,0,1,0,0,1,0,0,4,1,0,0,489,0,2,491,0
315,271,306,72,1,0,5,0,189,0,1,0,0,1,1,0,0,2,4,2,0,1,856,0,2,858,0
316,273,208,50,1,0,0,1,209,1,5,0,0,0,0,2,1,1,0,3,0,2,757,0,2,759,0
317,148,183,33,0,0,0,1,187,1,0,1,0,0,3,0,1,2,2,0,1,0,563,0,4,567,0
318,140,163,49,1,0,0,0,82,0,10,0,0,0,0,2,3,3,1,0,1,0,455,0,0,455,0
