Polling Station No,KARTHIK MOHAN,ROSHINI S,VIJAYAKUMAR S.R,ABDUL SHABEEK A,AJITHKUMAR A,AADHAV ARJUNA,ASHOK KUMAR C.A,ANBAZHAGAN G,KANNAN M,KANDASAMY S,KARTHICK S,KARTHICK P,SHANMUGA D,CHARAVANAN M.P,SOLOMON J.R,SUBRAMANI K,DHAYANIDHI D,DEVARAJAN G,BALAMURALI G,PURUSHOTHAMAN P,MANIMARAN P,MURALI R,MURALI VINODH M,YUVARAJ S,RAJI M,VIJAYAKUMAR G,VIJAYAKUMAR D,JAYA ZEBA C,Total Valid Votes,Rejected Votes,NOTA,Total,Tendered Votes
1,335,24,50,0,0,365,0,0,0,0,0,1,0,0,0,0,0,1,0,0,0,0,0,0,0,2,0,0,778,0,1,779,1
2,235,11,60,1,0,244,0,0,0,0,0,0,0,0,0,1,0,0,0,0,0,0,0,0,0,0,0,0,552,0,4,556,0
3,207,19,47,0,2,254,0,0,0,0,0,0,0,0,0,0,0,0,0,0,1,0,0,0,0,0,0,0,530,0,7,537,0
4,293,12,65,1,0,292,0,0,0,0,0,0,0,0,0,0,1,0,0,0,0,0,0,0,0,0,0,0,664,0,4,668,0
5,303,11,73,0,2,271,0,1,0,0,0,0,1,0,0,0,0,0,1,0,0,0,0,0,0,0,0,0,663,0,2,665,0
6,282,18,69,1,3,348,1,0,0,0,0,1,0,0,0,0,0,1,1,0,1,0,0,0,0,0,0,0,726,0,1,727,0
7,218,15,62,7,1,281,0,0,0,0,0,0,0,0,1,0,0,0,0,0,0,0,0,0,0,0,0,0,585,0,2,587,0
8,231,18,71,2,2,308,0,0,1,0,0,1,0,0,0,1,0,0,0,0,0,1,0,1,0,0,0,0,637,0,1,638,0
9,110,15,120,0,0,181,1,0,0,1,0,0,1,1,1,0,0,0,0,0,0,0,0,0,0,0,0,0,431,0,0,431,0
10,175,26,121,1,0,292,2,0,0,0,0,2,0,0,0,0,1,0,0,0,0,1,0,0,0,1,0,1,623,0,7,630,0
11,286,19,55,1,1,360,1,1,0,0,0,1,1,0,0,0,0,0,0,0,0,1,0,0,0,0,0,0,727,0,3,730,0
12,333,26,58,3,0,346,0,0,0,0,0,0,1,0,0,0,2,0,1,0,0,1,0,0,0,0,0,0,771,0,1,772,0
13,205,28,97,1,0,295,0,0,0,0,0,0,0,0,0,0,0,1,0,0,0,0,0,0,0,0,0,0,627,0,1,628,0
14,206,15,115,0,0,275,0,0,0,0,0,1,0,2,0,0,1,1,1,0,0,1,0,0,0,1,0,0,619,0,1,620,0
15,201,16,70,1,3,409,1,0,1,0,2,0,2,0,0,0,1,2,0,0,1,0,0,0,0,0,1,0,711,0,3,714,0
16,118,14,120,1,1,282,0,0,0,0,2,0,0,0,0,1,2,0,0,0,0,0,0,0,0,0,1,1,543,0,8,551,0
17,223,12,143,1,1,382,0,0,1,1,0,0,0,0,0,1,3,0,0,0,0,1,1,1,0,0,0,0,771,0,3,774,0
18,177,7,157,0,0,310,1,1,0,0,0,0,0,0,0,1,0,0,0,0,0,0,0,0,0,0,1,0,655,0,2,657,0
19,202,17,54,0,0,390,1,0,1,0,0,0,0,0,0,0,0,0,0,0,1,3,1,0,0,0,0,0,670,0,2,672,0
20,155,24,83,0,1,402,1,0,0,0,0,0,2,0,2,0,1,0,2,0,0,1,1,0,0,2,0,1,678,0,3,681,0
21,366,17,71,0,0,331,0,0,0,0,0,0,0,0,1,0,1,0,0,0,0,0,0,0,0,0,0,0,787,0,3,790,1
22,264,18,79,8,1,253,0,0,0,0,1,1,1,0,0,0,4,1,0,0,0,2,0,0,0,0,0,0,633,0,3,636,0
23,266,13,41,2,2,291,0,0,1,0,0,0,0,0,3,2,0,1,0,0,0,0,0,1,0,1,0,1,625,0,4,629,0
24,244,16,54,2,1,277,0,1,0,0,0,0,0,0,0,0,1,0,1,0,0,0,0,0,0,0,0,0,597,0,4,601,0
25,204,10,167,1,0,269,1,0,0,0,0,0,0,0,0,1,0,2,0,0,0,1,0,0,0,1,0,0,657,0,5,662,0
26,169,8,106,0,0,260,0,0,1,0,0,0,0,0,0,1,1,0,0,0,0,0,0,0,0,0,0,0,546,0,4,550,0
27,188,18,81,2,2,187,2,0,0,0,0,0,0,0,0,0,0,0,0,0,0,0,0,0,0,1,0,0,481,0,5,486,0
28,202,31,107,0,0,281,0,0,0,0,0,0,0,0,0,0,1,1,0,0,0,0,0,0,0,0,0,0,623,0,5,628,0
29,210,23,113,0,1,270,0,0,1,0,0,0,0,0,0,0,1,0,0,0,1,1,0,0,0,0,0,0,621,0,10,631,0
30,213,34,77,2,0,310,0,0,0,0,0,0,0,0,1,0,1,0,0,0,0,1,0,0,0,0,1,0,640,0,2,642,0
31,309,13,70,0,1,418,2,0,0,0,0,0,0,0,0,0,0,0,0,1,0,0,0,0,1,0,0,0,815,0,5,820,0
32,244,11,80,0,1,302,1,0,0,0,0,0,0,0,0,0,0,0,1,1,0,0,0,0,0,0,1,1,643,0,7,650,0
33,166,26,130,1,0,332,0,0,0,0,0,1,1,0,0,0,0,0,0,0,0,0,0,0,0,0,0,0,657,0,0,657,0
34,197,27,112,0,0,292,2,0,0,0,0,0,1,0,0,0,0,0,1,0,0,0,0,0,0,0,0,0,632,0,6,638,0
35,221,25,98,0,1,308,1,1,0,0,0,1,0,1,0,0,1,1,0,0,0,0,0,0,0,0,0,0,659,0,5,664,0
36,339,23,46,0,0,372,0,0,0,0,0,0,1,0,0,1,1,0,0,0,0,2,0,0,0,0,0,0,785,0,6,791,0
37,209,10,31,0,1,202,0,0,0,0,1,0,1,0,0,0,0,0,0,0,0,0,0,0,0,0,0,0,455,0,1,456,0
38,191,11,22,0,1,280,2,0,0,0,0,0,0,0,0,0,0,1,0,0,0,0,0,0,1,0,0,0,509,0,0,509,0
39,187,24,43,2,1,276,1,0,0,0,0,0,0,0,2,2,0,0,0,0,0,0,0,0,0,0,0,0,538,0,1,539,0
40,130,22,118,0,0,283,1,0,0,0,1,0,0,0,0,0,0,0,0,0,0,0,0,0,0,0,0,0,555,0,5,560,0
41,189,23,86,0,2,324,2,0,1,1,1,1,1,1,0,0,3,0,0,0,0,5,0,0,0,0,0,0,640,0,3,643,0
42,92,9,90,1,1,310,1,0,0,0,0,1,1,0,1,1,0,1,0,0,0,3,0,0,0,0,0,0,512,0,1,513,0
43,136,6,13,2,1,270,0,0,0,0,0,0,0,0,0,1,1,1,0,0,2,1,0,0,0,0,0,0,434,0,3,437,0
44,152,11,51,0,1,316,0,1,0,0,1,0,0,0,0,0,1,0,0,0,0,0,0,0,0,0,0,0,534,0,1,535,0
45,152,22,99,2,1,397,0,1,0,0,1,0,0,0,2,1,3,0,2,1,0,0,0,0,0,0,1,0,685,0,2,687,0
46,130,9,75,0,1,366,1,0,0,0,0,1,1,0,1,1,3,0,2,0,1,1,0,0,1,0,0,0,594,0,0,594,0
47,136,21,52,0,0,368,1,0,0,0,0,0,1,0,0,0,3,0,0,1,0,0,0,0,0,0,0,0,583,0,0,583,0
48,150,16,44,0,1,334,1,0,1,0,1,0,0,0,0,3,0,0,0,0,0,1,0,1,0,0,0,0,553,0,1,554,0
49,164,8,39,2,1,344,1,0,1,0,0,1,2,1,0,1,1,0,0,0,0,2,0,0,0,0,1,0,569,0,2,571,0
50,151,14,44,1,1,307,0,0,1,0,1,0,0,0,0,0,0,0,0,0,0,1,0,0,0,0,0,0,521,0,1,522,0
51,133,11,49,1,0,187,0,0,0,0,0,0,0,0,0,0,1,0,0,0,0,1,0,0,0,0,0,0,383,0,1,384,0
52,202,23,98,1,0,365,0,0,0,0,0,0,1,0,0,0,0,0,0,0,0,1,0,0,0,0,0,0,691,0,5,696,0
53,182,27,98,0,2,325,0,0,0,0,0,0,0,0,1,0,0,0,0,0,0,0,1,0,0,0,0,0,636,0,5,641,0
54,223,28,138,0,3,395,2,0,0,2,0,0,2,0,0,0,1,0,0,0,1,1,0,0,1,1,1,0,799,0,3,802,0
55,139,9,72,0,2,265,0,1,0,0,0,0,1,0,0,0,1,0,0,0,0,0,0,0,0,0,0,0,490,0,5,495,0
56,93,8,51,0,0,141,0,0,0,0,0,0,0,0,0,0,0,1,0,0,0,0,0,0,0,0,0,0,294,0,0,294,0
57,89,13,62,0,0,184,0,0,0,0,0,1,0,0,0,1,0,0,2,0,0,0,0,0,0,1,0,0,353,0,0,353,0
58,159,14,68,0,0,281,0,0,0,1,0,0,0,0,1,0,1,1,0,0,0,0,0,0,0,0,0,0,526,0,5,531,0
59,203,22,104,0,1,217,0,0,1,0,0,1,0,0,0,0,0,0,0,0,0,0,0,0,0,0,0,1,550,0,2,552,0
60,254,17,63,0,1,387,1,0,0,1,0,0,0,0,0,0,1,0,0,0,1,0,0,0,0,1,0,1,728,0,2,730,0
61,177,13,61,0,0,227,1,0,0,0,0,0,0,1,0,0,1,0,0,0,0,1,1,0,0,0,0,0,483,0,2,485,0
62,146,13,55,0,1,283,0,0,0,1,0,0,1,0,1,1,2,0,1,0,0,1,1,0,0,0,0,0,507,0,2,509,0
63,237,25,101,2,1,310,0,0,0,0,1,0,1,0,0,0,1,1,0,0,0,0,0,0,0,0,0,0,680,0,3,683,0
64,220,19,93,1,0,281,1,0,1,0,0,1,0,0,0,0,0,0,2,0,0,1,0,0,0,0,0,0,620,0,1,621,0
65,157,28,56,0,0,385,0,0,0,0,0,0,0,0,2,0,2,0,0,1,0,1,2,0,0,0,0,1,635,0,3,638,0
66,227,17,51,0,0,233,0,0,1,0,0,0,1,0,0,0,0,0,0,0,0,0,0,0,0,0,1,0,531,0,4,535,0
67,205,8,61,0,0,234,1,0,0,0,1,0,0,0,1,1,0,1,1,0,0,1,0,0,0,0,0,0,515,0,2,517,0
68,208,9,70,0,0,213,1,0,0,0,0,0,2,0,0,0,0,0,0,0,0,0,0,0,0,0,0,0,503,0,5,508,0
69,172,13,122,0,1,259,0,0,1,1,1,0,0,0,0,0,0,0,0,0,0,0,0,0,0,0,0,0,570,0,2,572,0
70,246,23,119,1,3,373,0,0,0,0,0,0,0,0,0,0,0,1,0,0,0,0,0,0,0,0,0,0,766,0,4,770,0
71,226,12,53,1,0,280,0,0,1,0,0,0,0,0,0,1,0,1,0,0,0,1,0,0,0,0,0,0,576,0,1,577,0
72,242,25,92,0,0,250,0,0,0,1,1,0,1,1,0,1,1,0,0,0,0,0,0,0,0,0,0,0,615,0,5,620,0
73,183,22,100,0,0,175,0,0,0,1,0,1,0,0,0,0,0,0,0,0,0,0,0,0,0,0,0,0,482,0,6,488,0
74,ge123 1,13,59,1,0,168,0,0,0,0,0,0,0,0,0,0,0,0,1,0,0,1,0,0,0,0,0,0,366,0,2,368,0
75,241,41,97,4,0,402,0,1,2,1,0,0,0,0,0,1,2,1,0,0,0,1,0,0,0,0,0,0,794,0,2,796,0
76,216,12,107,2,0,293,0,0,0,0,0,0,0,0,0,0,0,0,0,0,0,0,0,0,0,0,0,0,630,0,5,635,0
77,188,14,72,1,0,218,0,0,0,0,0,0,1,0,0,0,0,0,0,0,0,1,0,0,0,1,0,0,496,0,4,500,0
78,139,27,102,1,0,182,0,0,1,0,0,0,0,0,0,0,0,0,0,0,0,0,0,0,0,0,0,0,452,0,4,456,0
79,233,19,55,0,0,337,0,0,0,0,0,0,0,0,0,0,0,0,0,0,0,0,0,0,0,0,0,0,644,0,3,647,0
80,193,26,120,0,1,307,1,0,0,0,0,0,0,0,1,0,0,1,1,0,0,0,0,0,0,0,0,0,651,0,5,656,0
81,231,32,83,0,1,292,0,0,0,0,1,0,0,0,0,0,2,0,0,0,0,0,1,0,0,0,0,1,644,0,8,652,0
82,222,25,126,3,1,267,2,0,0,0,0,1,1,0,0,0,2,0,1,0,0,0,0,1,0,0,0,0,652,0,6,658,0
83,162,23,153,0,0,238,1,1,1,0,0,0,1,0,0,0,0,1,0,0,0,0,0,0,1,0,0,0,582,0,3,585,0
84,131,13,49,1,1,263,0,1,0,0,0,0,1,1,0,0,1,0,0,0,0,0,0,0,0,0,0,0,462,0,3,465,0
85,135,16,79,2,0,194,0,0,0,0,0,0,0,1,0,1,0,0,0,0,0,0,0,0,0,0,0,0,428,0,1,429,0
86,274,23,120,3,1,313,1,1,0,0,0,0,0,0,0,0,0,0,0,0,0,0,0,0,0,0,1,0,737,0,10,747,1
87,95,7,65,1,0,160,1,0,0,0,0,0,0,0,0,0,0,0,0,0,0,0,0,0,0,0,0,0,329,0,1,330,0
88,178,13,76,0,3,365,0,0,0,0,0,0,2,0,0,0,1,0,1,0,0,0,0,5,0,0,0,0,644,0,0,644,0
89,149,10,53,0,1,191,0,0,0,0,0,0,0,0,0,0,0,0,0,0,0,0,0,1,0,0,0,0,405,0,1,406,0
90,143,16,75,0,1,250,1,0,0,0,0,0,1,0,0,0,2,0,0,0,0,0,0,1,0,1,0,0,491,0,1,492,0
91,190,21,119,0,0,276,0,0,0,0,1,0,2,0,0,2,0,0,0,0,0,0,0,0,0,0,0,0,611,0,5,616,0
92,254,12,73,0,0,423,1,0,0,1,0,0,0,0,0,1,4,1,1,0,0,1,0,0,0,0,1,0,773,0,0,773,0
93,167,20,138,0,0,176,0,0,0,0,0,0,0,0,0,0,0,0,0,0,0,0,0,0,0,0,0,0,501,0,3,504,0
94,191,23,112,0,1,158,0,0,0,0,0,0,0,0,0,0,0,0,0,0,0,0,1,0,0,0,0,0,486,0,7,493,0
95,226,15,50,1,1,245,0,0,0,0,0,0,0,0,0,0,0,0,0,0,0,0,0,0,0,0,0,0,538,0,6,544,0
96,148,17,57,0,0,106,0,0,0,0,0,0,1,0,1,0,0,0,0,0,0,0,0,0,0,0,0,0,330,0,4,334,0
97,194,18,81,2,1,291,1,0,0,0,0,3,1,1,0,2,3,0,0,0,1,0,1,0,0,0,0,1,601,0,3,604,0
98,193,17,64,1,1,267,0,0,0,0,0,0,0,0,0,0,1,0,1,0,0,1,0,0,0,0,0,1,547,0,3,550,0
99,154,19,97,0,0,206,0,0,0,0,0,1,0,0,0,1,1,0,0,0,0,0,0,0,0,1,0,0,480,0,3,483,0
100,117,9,83,0,0,104,0,0,0,0,0,0,1,0,0,0,0,0,0,0,0,0,0,0,0,0,0,0,314,0,3,317,0
101,177,14,109,0,0,174,0,0,2,0,0,0,1,0,0,0,0,0,0,0,0,1,0,0,0,2,1,1,482,0,1,483,0
102,226,27,127,0,0,156,1,0,1,0,0,0,0,0,0,0,0,0,0,0,0,0,0,0,0,0,0,0,538,0,3,541,0
103,146,14,90,0,1,127,1,0,0,0,0,0,0,0,0,0,1,0,0,0,0,0,0,0,0,1,0,0,381,0,5,386,0
104,119,7,55,1,2,83,0,1,0,1,0,0,1,0,1,0,1,0,0,0,0,0,0,0,0,0,0,1,273,0,5,278,0
105,189,21,175,0,0,172,0,0,2,0,0,0,0,0,0,0,0,0,0,0,0,0,0,0,0,0,0,0,559,0,3,562,0
106,117,10,106,1,1,103,0,0,1,0,0,0,0,1,0,0,0,0,0,0,0,0,0,0,0,0,0,0,340,0,6,346,0
107,196,13,82,0,0,118,0,0,0,0,1,0,0,0,0,0,0,1,0,0,0,0,0,0,0,0,1,0,412,0,3,415,0
108,115,7,64,1,0,127,0,0,0,0,0,0,0,0,0,0,0,0,0,0,0,0,0,0,0,0,0,0,314,0,6,320,0
109,246,22,147,0,1,225,0,0,0,0,0,0,0,0,0,0,2,0,0,0,0,1,0,1,0,0,0,0,645,0,2,647,0
110,133,20,57,1,0,170,0,0,0,0,0,0,0,0,0,0,0,0,0,0,0,0,0,0,0,0,0,0,381,0,1,382,0
111,123,17,13,0,1,111,0,0,0,0,0,1,0,0,0,0,1,1,0,0,0,0,0,0,0,0,0,0,268,0,1,269,0
112,181,25,76,0,0,178,0,0,0,0,0,0,0,1,0,0,0,0,0,0,0,0,0,0,0,0,1,0,462,0,6,468,0
113,205,18,133,0,0,177,1,0,1,0,0,0,1,0,0,0,2,1,0,0,0,0,0,0,0,0,0,0,539,0,4,543,0
114,206,22,74,1,1,223,1,0,0,0,0,0,0,0,0,1,0,0,2,0,0,0,0,0,0,0,0,0,531,0,2,533,0
115,203,21,87,1,1,347,0,0,0,0,0,2,0,1,0,2,0,0,0,1,1,0,0,0,0,0,0,0,667,0,2,669,0
116,191,24,51,0,0,126,0,0,0,0,0,0,0,0,0,0,0,0,0,0,0,1,0,0,0,0,0,0,393,0,4,397,0
117,139,17,60,1,1,124,0,0,0,0,1,1,0,0,0,1,0,0,0,0,0,0,0,0,0,0,1,0,346,0,0,346,0
118,86,19,93,0,0,143,0,0,0,0,0,0,0,0,1,0,0,0,0,0,0,0,0,0,0,0,0,0,342,0,5,347,0
119,201,16,84,0,0,129,1,0,0,0,0,0,0,0,0,0,1,1,0,0,0,1,0,0,0,0,0,0,434,0,3,437,0
120,151,18,98,0,2,135,1,0,1,0,0,0,0,0,1,0,0,0,0,0,0,0,0,0,0,0,2,0,409,0,7,416,0
121,160,14,105,0,1,152,1,0,0,0,0,0,0,0,1,1,1,0,2,1,0,0,0,1,0,1,0,0,441,0,2,443,0
122,226,18,75,0,0,183,0,0,1,0,1,0,0,0,0,2,0,0,1,0,0,1,0,0,0,1,0,0,509,0,4,513,0
123,347,13,72,1,0,353,0,0,0,1,0,1,0,0,0,0,1,1,1,0,0,2,0,0,0,0,0,1,794,0,0,794,0
124,189,22,112,1,1,222,1,0,0,0,0,0,0,0,1,0,0,0,0,0,0,0,0,0,0,0,0,0,549,0,4,553,0
125,175,20,134,0,0,168,0,0,0,0,0,0,2,0,0,0,1,1,0,0,0,0,0,0,0,0,0,1,502,0,4,506,0
126,183,13,122,0,1,223,1,0,0,0,0,0,0,0,0,0,0,0,0,0,0,1,0,0,0,0,0,1,545,0,3,548,0
127,148,11,66,0,0,102,0,0,2,0,0,0,0,0,1,0,1,0,0,0,0,0,0,0,0,0,0,0,331,0,6,337,0
128,149,19,46,0,0,207,0,0,0,0,0,0,1,0,0,0,0,0,0,0,0,0,1,0,0,1,1,0,425,0,3,428,0
129,144,14,49,1,0,170,0,0,1,0,0,0,1,0,0,1,1,0,0,0,0,0,1,0,0,0,0,0,383,0,2,385,0
130,170,11,94,0,0,106,1,1,1,0,0,1,0,0,0,0,0,1,0,0,0,0,0,0,1,0,0,0,387,0,5,392,0
131,168,15,107,1,1,232,1,0,0,0,0,0,0,2,0,1,0,0,0,0,0,0,0,0,0,0,0,1,529,0,4,533,0
132,257,20,292,3,0,301,0,0,0,0,0,1,0,0,3,0,0,0,0,0,0,0,0,0,0,0,0,0,877,0,5,882,0
133,164,26,146,0,2,302,0,1,0,0,0,1,0,0,2,0,0,0,0,0,0,0,1,0,0,1,0,0,646,0,3,649,0
134,171,28,153,0,0,270,0,0,0,1,1,1,1,2,1,0,0,0,2,0,0,1,1,1,0,0,0,0,634,0,3,637,0
135,122,5,41,1,0,192,1,0,1,0,0,1,1,1,0,1,1,1,1,0,0,0,0,0,0,0,0,0,370,0,2,372,0
136,207,34,89,0,1,309,0,0,0,0,0,0,0,0,0,0,3,0,0,0,0,0,1,0,0,0,1,0,645,0,4,649,0
137,216,16,39,0,0,238,0,0,1,0,0,0,2,0,0,0,0,1,0,0,0,0,0,0,0,0,0,1,514,0,1,515,0
138,285,15,88,0,0,318,0,1,0,0,0,0,1,0,1,0,1,0,0,0,0,1,0,0,0,0,0,1,712,0,1,713,0
139,197,10,74,0,0,332,1,0,0,1,0,0,0,0,0,0,1,1,1,0,1,0,0,1,0,0,1,1,622,0,2,624,0
140,223,9,78,0,0,287,1,0,0,0,0,0,2,0,0,0,0,0,0,0,1,0,1,0,0,0,0,0,602,0,2,604,0
141,117,23,43,0,1,187,1,0,0,0,0,1,0,0,0,0,0,1,0,0,0,0,0,0,0,0,0,0,374,0,1,375,1
142,147,25,27,0,1,117,0,0,0,0,0,0,0,0,0,0,0,0,0,0,0,0,0,0,0,0,0,0,317,0,0,317,0
143,166,17,31,0,0,226,0,0,0,0,0,0,2,0,0,0,0,0,0,0,0,0,0,0,0,0,0,0,442,0,3,445,0
144,179,49,50,0,1,226,0,1,1,0,0,0,0,0,0,0,0,0,0,0,0,0,0,0,0,0,0,0,507,0,3,510,0
145,123,9,32,1,0,142,0,0,0,0,0,0,0,0,0,0,0,0,0,0,0,2,0,1,0,0,0,1,311,0,2,313,1
146,98,1,25,4,0,156,0,1,0,0,0,1,0,0,0,0,0,1,0,0,0,1,0,0,0,0,0,0,288,0,1,289,0
147,138,10,28,2,1,141,0,0,0,0,0,0,0,0,0,0,1,0,0,0,0,0,0,0,0,0,0,0,321,0,1,322,0
148,ge120 2,9,58,0,1,200,0,0,1,0,0,0,0,0,0,0,0,0,0,0,0,0,0,1,0,0,0,0,390,0,0,390,0
149,163,31,60,0,0,348,1,0,0,0,0,0,0,0,0,0,2,1,0,0,0,0,0,0,0,1,0,0,607,0,2,609,0
150,178,19,57,0,0,295,1,0,0,0,1,0,0,0,0,0,3,0,0,0,0,1,0,0,0,1,0,1,557,0,0,557,0
151,276,12,94,0,1,403,0,0,0,0,0,1,0,0,0,0,3,0,0,0,0,0,0,0,0,0,1,0,791,0,4,795,1
152,135,14,62,0,1,227,0,0,0,0,0,0,0,0,1,0,0,0,0,0,0,0,0,1,0,1,0,0,442,0,0,442,0
153,171,12,68,0,0,333,1,0,0,0,0,1,2,0,0,0,5,0,0,0,0,0,0,0,0,1,0,2,596,0,2,598,0
154,287,15,79,1,1,380,0,0,1,0,0,0,1,0,0,2,0,1,1,0,0,0,0,0,0,0,0,0,769,0,4,773,0
155,197,7,75,2,0,283,2,0,0,0,0,0,0,0,0,0,0,0,0,0,0,0,0,0,0,0,0,0,566,0,0,566,0
156,182,14,52,0,1,263,1,0,0,0,0,0,0,0,0,0,0,0,0,0,1,0,1,0,0,0,0,0,515,0,1,516,0
157,137,11,85,1,0,144,1,1,0,0,1,0,1,0,0,0,0,0,0,0,0,0,0,0,0,1,0,0,383,0,2,385,0
158,109,13,72,0,3,120,0,0,0,0,0,0,0,0,0,1,2,0,0,0,0,0,0,1,0,0,0,0,321,0,2,323,1
159,226,16,57,0,0,288,0,0,0,0,0,1,0,0,0,1,1,0,1,0,0,0,0,0,0,0,0,0,591,0,0,591,0
160,147,22,68,0,0,239,1,0,1,0,0,0,2,0,0,0,1,0,0,0,0,3,0,0,0,0,0,0,484,0,4,488,0
161,141,14,31,0,0,232,0,0,0,0,0,0,0,0,0,0,0,0,0,0,0,0,0,0,0,0,1,0,419,0,1,420,0
162,141,17,23,0,0,146,0,0,0,0,0,0,0,0,0,1,0,2,0,0,0,0,0,0,0,0,0,0,330,0,1,331,0
163,114,13,36,0,1,172,0,0,0,0,0,0,0,0,0,0,0,0,0,0,0,0,0,0,0,0,0,0,336,0,1,337,0
164,271,12,62,0,1,314,1,0,0,0,0,0,0,0,0,0,2,1,0,0,0,0,0,0,0,1,0,0,665,0,0,665,0
165,144,15,67,0,0,215,0,0,0,0,0,0,0,0,0,0,0,0,2,0,0,0,0,0,0,0,1,0,444,0,3,447,1
166,159,10,60,0,0,292,0,0,0,0,0,1,0,0,0,0,1,0,1,0,0,0,0,0,0,0,0,0,524,0,1,525,0
167,180,13,83,0,0,196,0,0,1,0,0,1,1,0,0,1,0,0,0,0,0,1,0,0,0,0,0,0,477,0,2,479,0
168,229,13,93,0,0,306,0,0,0,0,1,0,2,0,0,0,1,0,0,0,1,1,1,0,0,0,0,0,648,0,5,653,0
169,243,23,88,0,0,362,0,0,0,0,0,0,2,1,1,0,4,0,0,0,0,0,0,0,0,0,0,0,724,0,3,727,0
170,234,9,70,1,0,274,0,0,0,0,0,0,0,0,0,0,1,0,0,0,0,0,1,0,0,0,1,0,591,0,5,596,0
171,147,18,56,0,0,201,0,0,0,0,0,0,3,0,0,0,0,0,0,0,0,0,0,0,0,0,0,0,425,0,0,425,0
172,228,17,103,1,2,392,0,1,0,0,0,1,0,0,0,0,1,0,0,0,0,0,0,0,0,0,0,0,746,0,2,748,0
173,122,12,39,1,1,199,0,0,0,1,0,0,0,0,0,0,0,0,0,0,0,1,0,0,0,0,0,0,376,0,2,378,0
174,149,10,67,0,1,227,1,0,0,0,0,0,0,0,0,0,0,0,0,0,0,0,0,0,0,0,0,0,455,0,6,461,0
175,168,23,52,2,0,227,1,1,0,0,0,0,0,0,0,0,2,0,0,0,0,1,0,0,0,0,0,0,477,0,1,478,0
176,198,34,69,3,0,291,1,0,0,0,0,1,0,0,1,0,2,0,0,0,0,1,0,0,0,0,0,0,601,0,8,609,0
177,120,16,52,0,0,195,0,0,0,1,0,0,0,0,0,0,1,0,0,0,0,0,0,0,0,0,0,0,385,0,5,390,0
178,180,20,76,0,0,275,0,0,0,0,0,1,1,0,0,0,0,0,0,0,0,0,0,0,0,0,1,0,554,0,2,556,0
179,229,16,71,0,0,269,0,0,0,0,1,0,0,0,1,0,0,0,0,0,0,0,0,0,0,1,0,0,588,0,2,590,0
180,260,17,88,1,4,379,0,0,2,1,0,1,0,0,0,1,2,0,1,0,0,0,0,0,0,0,0,1,758,0,6,764,0
181,260,26,87,2,1,279,0,0,0,0,2,1,0,0,0,1,0,0,1,0,0,0,0,0,0,0,0,0,660,0,0,660,0
182,198,18,49,0,1,313,1,0,1,0,0,1,1,0,0,0,0,0,0,0,0,0,0,0,0,0,0,0,583,0,2,585,0
183,192,17,52,0,0,307,0,0,0,1,0,0,1,0,0,0,0,1,0,0,0,0,0,0,0,0,0,0,571,0,3,574,0
184,189,19,46,0,2,337,0,0,1,0,0,1,1,0,0,0,1,0,0,0,0,2,1,0,0,0,0,0,600,0,2,602,0
185,231,17,35,0,0,397,2,0,0,0,0,0,0,1,0,2,2,0,0,0,1,1,0,1,0,0,0,1,691,0,1,692,0
186,167,23,79,0,1,330,0,0,1,0,0,0,1,0,0,0,0,0,0,0,0,0,0,0,0,0,0,0,602,0,1,603,0
187,150,16,82,1,0,263,0,1,0,0,0,1,3,0,0,0,1,1,0,0,0,0,0,0,0,0,0,0,519,0,3,522,0
188,285,15,51,0,0,270,0,0,0,0,0,0,0,0,0,0,0,0,0,0,0,0,0,0,0,0,0,0,621,0,1,622,0
189,201,18,40,0,1,274,0,0,0,0,0,0,0,1,0,0,1,0,1,0,0,0,0,0,0,0,0,0,537,0,1,538,0
190,211,16,63,0,0,212,0,0,0,0,1,0,0,0,0,0,1,0,0,0,1,0,0,0,0,0,1,0,506,0,2,508,0
191,261,32,74,1,0,321,0,1,0,1,0,0,1,0,1,0,1,0,0,0,0,0,0,0,0,1,0,0,695,0,2,697,0
192,163,15,65,1,0,193,0,0,0,1,0,0,0,0,0,0,0,0,0,0,0,0,0,0,0,1,0,0,439,0,1,440,0
193,253,25,42,0,0,285,0,1,0,0,0,0,0,0,0,0,0,0,0,0,0,1,0,0,0,0,0,0,607,0,0,607,0
194,176,10,25,0,1,205,0,0,0,0,0,0,0,0,1,0,0,0,0,0,0,0,0,0,0,0,0,0,418,0,1,419,0
195,268,26,36,0,0,341,0,0,0,1,0,1,0,0,0,0,0,0,0,0,0,0,0,0,0,0,0,0,673,0,1,674,0
196,136,7,29,0,0,149,0,0,0,0,0,0,0,0,0,0,0,0,0,0,0,0,0,0,0,0,0,0,321,0,1,322,0
197,216,13,58,1,0,211,0,1,1,0,0,0,1,0,0,1,0,0,0,0,0,1,1,1,1,0,0,0,507,0,9,516,0
198,243,28,74,2,0,326,0,0,0,0,0,0,0,0,0,0,0,0,0,0,0,0,1,0,0,0,0,0,674,0,1,675,0
199,111,9,26,0,0,125,1,0,0,1,0,0,0,0,0,0,0,0,0,1,0,0,0,0,0,2,0,0,276,0,1,277,0
200,126,26,47,1,0,220,0,0,0,0,0,0,0,0,0,0,0,0,0,0,0,0,0,0,0,0,0,0,420,0,2,422,0
201,242,14,54,0,2,411,2,0,0,0,2,0,0,0,0,1,2,1,0,0,0,0,0,0,0,0,0,0,731,0,0,731,0
202,324,13,108,0,4,372,0,0,0,0,2,2,0,0,0,2,2,1,0,0,0,0,0,0,0,0,0,0,830,0,4,834,0
203,166,19,67,1,0,335,1,0,0,0,1,1,0,0,0,1,1,0,1,0,0,0,0,0,0,4,0,0,598,0,3,601,0
204,280,14,89,0,1,245,0,0,1,0,0,0,0,0,0,1,0,1,0,0,0,0,0,0,0,0,0,0,632,0,1,633,0
205,125,20,59,1,0,158,1,0,0,0,0,0,0,0,0,0,2,0,0,0,0,0,0,0,0,0,0,0,366,0,4,370,0
206,144,24,64,0,0,309,0,1,0,1,0,0,1,0,0,0,3,0,1,0,0,0,1,0,0,0,0,0,549,0,4,553,0
207,157,12,95,0,1,245,0,0,0,0,0,0,0,1,0,0,2,0,0,0,0,1,0,0,0,0,0,0,514,0,2,516,0
208,135,9,39,0,0,180,1,0,0,0,0,0,0,0,0,0,0,0,0,0,0,0,0,0,0,0,0,0,364,0,2,366,1
209,182,15,90,1,0,278,0,0,0,0,0,0,1,0,0,0,2,1,0,0,1,0,0,0,0,0,2,1,574,0,0,574,0
210,187,33,102,0,2,407,0,0,0,0,0,1,1,0,1,1,1,0,0,0,0,0,0,0,1,0,0,1,738,0,5,743,0
211,237,19,136,0,0,338,0,0,2,0,0,1,0,0,0,0,1,0,0,0,1,0,0,0,0,1,0,0,736,0,3,739,0
212,159,15,91,0,0,250,1,0,0,0,0,0,0,0,0,0,1,0,0,0,0,0,0,1,0,0,0,0,518,0,1,519,0
213,102,8,93,2,1,187,1,0,0,1,0,0,0,0,0,1,1,0,0,0,0,0,0,0,0,0,0,0,397,0,1,398,0
214,172,14,127,1,0,280,1,0,1,0,0,2,1,0,0,0,1,1,0,0,0,4,0,0,0,1,0,0,606,0,3,609,0
215,322,14,84,2,0,359,0,0,1,0,1,0,2,0,0,1,0,2,0,0,0,0,0,0,0,1,1,0,790,0,1,791,0
216,211,13,73,0,1,339,0,0,0,0,0,0,0,0,0,0,0,0,0,0,0,0,0,0,0,0,0,0,637,0,4,641,0
217,248,13,76,1,1,363,1,1,0,0,0,0,0,0,1,0,0,0,1,0,0,0,0,0,0,0,0,0,706,0,3,709,1
218,161,21,76,0,0,153,0,0,0,0,1,0,2,0,0,0,0,0,0,0,0,0,0,0,0,0,0,0,414,0,1,415,0
219,154,29,138,0,0,206,0,1,0,4,0,0,1,0,0,1,0,0,0,0,0,0,0,0,0,0,0,0,534,0,7,541,0
220,110,19,93,1,0,184,0,0,0,0,0,1,2,0,0,0,1,0,0,0,0,0,0,0,0,0,0,0,411,0,4,415,0
221,162,14,124,0,0,194,1,0,0,1,1,0,0,0,0,0,0,0,0,0,1,0,0,0,0,0,0,0,498,0,2,500,0
222,ge152 3,22,136,1,1,231,0,0,0,0,0,0,0,0,1,0,1,1,0,0,0,1,0,0,0,1,0,0,548,0,5,553,0
223,155,23,68,1,0,241,0,0,0,0,0,0,1,0,0,0,0,0,0,0,0,0,0,1,0,1,0,3,494,0,2,496,0
224,137,15,49,0,0,123,0,0,0,0,0,0,0,0,0,0,1,0,0,0,0,1,0,0,0,0,0,0,326,0,1,327,0
225,187,12,94,0,0,245,0,0,0,2,0,2,0,0,0,0,1,0,0,0,1,0,0,1,0,0,0,0,545,0,3,548,0
226,213,17,59,1,1,357,1,0,0,1,0,1,0,1,0,0,3,1,1,0,1,0,0,0,0,0,0,0,658,0,3,661,0
227,229,28,100,0,1,399,0,0,0,0,1,1,0,2,1,1,0,0,1,0,0,0,1,1,0,0,0,0,766,0,4,770,0
228,214,23,86,2,0,300,0,0,0,0,0,0,0,0,0,0,0,0,0,0,0,0,0,0,0,0,0,0,625,0,3,628,0
229,255,12,63,0,0,349,1,0,0,1,0,0,0,0,0,1,2,0,0,0,0,0,0,0,0,0,0,0,684,0,2,686,1
230,116,14,43,1,1,263,0,0,1,1,0,0,0,0,0,0,0,1,0,0,0,1,0,1,0,0,0,2,445,0,1,446,0
231,192,11,35,0,0,268,0,0,0,0,0,0,1,0,0,1,1,0,0,0,0,1,0,0,0,0,0,0,510,0,1,511,0
232,280,19,113,1,2,291,0,0,0,1,0,0,0,0,0,0,1,0,0,0,0,0,0,0,0,0,0,0,708,0,4,712,0
233,137,11,64,0,0,270,1,0,0,1,0,1,1,0,0,0,0,0,0,0,0,0,0,0,0,0,0,0,486,0,1,487,0
234,183,5,53,0,2,202,0,0,0,0,0,0,0,0,1,0,0,0,0,0,0,0,0,0,0,0,0,0,446,0,4,450,0
235,248,28,74,2,0,346,1,0,0,0,0,0,0,1,0,0,0,0,0,0,0,0,0,0,0,1,0,0,701,0,3,704,0
236,248,3,18,1,1,282,0,0,0,0,0,0,1,0,0,0,2,0,0,0,1,1,0,0,0,0,0,0,558,0,2,560,0
237,149,5,31,0,1,210,1,0,0,0,0,2,0,0,0,1,0,0,0,0,0,0,0,1,0,0,0,0,401,0,0,401,0
238,364,5,66,0,0,289,1,1,1,0,0,0,1,0,0,1,2,0,0,0,0,1,0,0,0,0,1,2,735,0,3,738,0
239,149,3,18,0,0,215,0,0,0,0,0,0,0,0,0,2,2,0,0,1,0,0,1,0,0,0,0,0,391,0,1,392,0
240,240,16,17,0,1,234,0,0,0,0,0,0,0,0,0,0,1,0,0,0,0,0,0,1,0,1,0,2,513,0,1,514,0
241,231,11,38,1,0,250,1,0,0,0,0,1,1,0,0,0,2,2,1,0,0,1,0,1,0,0,0,5,546,0,2,548,0
242,256,28,48,0,0,266,1,0,0,0,0,0,1,0,0,0,2,0,0,0,0,0,0,1,0,0,0,0,603,0,0,603,0
243,183,12,51,1,0,239,1,0,0,0,0,0,0,0,0,0,0,0,1,0,0,0,0,0,0,0,0,2,490,0,2,492,0
244,235,8,53,0,0,198,2,0,0,0,0,0,0,0,0,1,1,1,0,0,0,0,0,0,1,1,0,0,501,0,2,503,0
245,156,10,28,1,0,205,1,0,0,0,0,1,0,0,0,0,1,0,0,0,0,0,0,0,0,0,0,0,403,0,1,404,0
246,256,13,37,0,0,320,1,0,0,0,0,1,0,0,0,0,0,0,0,0,0,0,0,0,0,0,0,0,628,0,1,629,0
247,237,8,49,0,2,258,0,2,0,0,0,1,0,0,0,0,2,0,0,0,0,1,0,0,0,0,0,0,560,0,1,561,0
248,311,24,55,0,0,382,0,1,1,0,1,0,0,0,1,0,0,0,0,0,0,0,0,0,0,0,0,1,777,0,1,778,0
249,173,16,94,0,2,390,0,0,1,0,0,0,1,0,1,1,0,0,0,0,0,2,0,1,0,0,0,1,683,0,1,684,0
250,187,11,72,0,0,395,0,0,0,0,0,0,2,0,0,0,4,4,0,0,1,0,0,0,0,0,0,2,678,0,2,680,0
251,24,1,5,0,0,18,0,1,0,1,2,1,1,0,0,5,1,0,0,0,0,0,0,0,0,0,0,0,60,0,1,61,0
252,128,11,30,0,0,272,0,0,0,0,0,0,0,0,0,0,1,0,0,0,0,0,1,0,0,0,0,0,443,0,1,444,0
253,143,6,16,0,0,98,0,0,0,1,0,0,0,0,0,0,1,0,0,0,0,1,0,0,0,0,0,0,266,0,2,268,0
254,195,22,92,1,0,136,0,0,0,0,1,0,0,0,1,0,0,1,0,0,0,0,0,0,0,0,0,0,449,0,6,455,0
255,270,4,67,0,2,400,0,0,0,0,0,0,0,0,0,0,1,0,0,1,0,0,0,0,0,0,0,0,745,0,2,747,0
