Polling Station No,KATHARBATCHA MUTHURAMALINGAM,GBS K.NAGENDRAN,S.M. MUTHU KESAVAN,DR.J. ABUBAKKAR SITHICK,SHAHUL HAMEED,C. PARIRAJAN,S. MURUGABOOPATHY,KAN ILANGO,KARTHIGAI PANDI,A. CHINNA RAJA,BALAKRISHNAN,PULLANI,K. MALESWARAN,Total Valid Votes,Rejected Votes,NOTA,Total,Tendered Votes
1,214,195,43,0,115,0,1,0,0,0,0,0,0,568,0,5,573,0
2,83,222,21,0,66,0,0,0,0,0,0,1,1,394,0,1,395,0
3,246,290,88,3,219,1,0,1,1,2,3,2,2,858,0,4,862,0
4,248,165,28,1,219,0,1,0,0,0,0,1,0,663,0,4,667,0
5,186,289,53,3,345,0,1,1,2,2,0,0,3,885,0,3,888,0
6,184,135,37,2,132,0,0,1,1,4,0,1,3,500,0,3,503,0
7,224,113,110,1,225,1,2,1,1,6,2,1,3,690,0,6,696,0
8,223,171,49,0,252,2,1,0,3,1,0,1,4,707,0,3,710,0
9,129,104,38,0,86,0,0,1,1,1,0,0,0,360,0,2,362,0
10,118,428,49,2,199,2,1,0,0,1,0,1,3,804,0,3,807,0
11,162,88,105,1,171,2,0,1,0,0,0,0,2,532,0,2,534,0
12,216,126,57,2,88,2,0,1,0,0,0,2,1,495,0,7,502,0
13,240,352,79,0,156,1,0,0,1,0,0,1,4,834,0,2,836,0
14,302,141,122,1,204,0,0,1,0,1,1,1,0,774,0,2,776,0
15,127,70,49,1,95,1,1,2,0,4,1,0,1,352,0,4,356,0
16,351,96,35,0,156,0,1,0,1,0,0,0,1,641,0,3,644,0
17,299,95,24,0,139,0,1,0,0,0,0,0,0,558,0,3,561,0
18,135,58,52,1,128,1,0,0,1,0,1,0,0,377,0,2,379,0
19,303,108,32,0,156,1,0,2,0,0,0,0,2,604,0,0,604,0
20,84,143,80,2,54,0,0,1,0,2,0,1,1,368,0,5,373,0
21,48,316,9,0,130,1,0,0,0,0,0,2,3,509,0,5,514,0
22,236,160,95,3,234,2,0,1,1,2,0,2,2,738,0,2,740,0
23,476,61,60,1,213,1,0,0,1,0,0,3,0,816,0,1,817,0
24,141,280,18,3,236,0,0,3,1,2,0,1,2,687,0,2,689,0
25,277,45,17,1,118,0,0,1,0,1,1,0,0,461,0,1,462,0
26,202,248,29,1,230,1,2,0,0,0,2,0,1,716,0,0,716,0
27,300,137,60,2,300,0,0,1,0,0,0,0,0,800,0,0,800,0
28,52,193,12,0,211,1,1,0,0,3,0,0,1,474,0,0,474,0
29,276,271,84,0,187,0,0,2,1,2,2,2,1,828,0,6,834,0
30,421,98,28,2,179,0,0,0,0,1,0,0,0,729,0,2,731,0
31,164,136,24,1,406,0,0,0,1,3,2,0,0,737,0,0,737,0
32,87,141,20,2,254,1,0,0,0,0,1,1,1,508,0,3,511,0
33,338,54,19,2,133,1,1,0,0,0,1,1,0,550,0,1,551,0
34,76,159,19,0,186,1,0,0,1,0,1,0,0,443,0,2,445,0
35,105,188,10,1,131,0,0,0,0,1,0,0,0,436,0,3,439,0
36,476,9,5,0,120,0,0,0,0,0,0,0,0,610,0,2,612,0
37,524,13,8,0,89,0,0,0,0,0,0,0,1,635,0,0,635,0
38,360,4,5,1,70,0,0,0,0,0,0,0,0,440,0,2,442,0
39,309,11,5,1,67,1,0,0,0,0,0,0,0,394,0,1,395,0
40,273,3,3,2,54,0,0,0,0,0,0,0,0,335,0,4,339,0
41,439,7,3,1,67,0,1,0,0,0,0,0,0,518,0,0,518,0
42,474,29,15,2,134,1,0,1,0,1,0,0,0,657,0,1,658,0
43,341,3,11,0,83,0,0,0,0,0,0,0,0,438,0,3,441,0
44,456,5,2,1,52,0,0,0,0,0,0,0,0,516,0,1,517,0
45,504,6,10,0,64,0,0,0,0,0,0,0,0,584,0,2,586,0
46,476,2,8,0,97,0,0,0,0,0,0,0,0,583,0,2,585,0
47,370,7,2,1,72,0,0,0,0,0,0,0,0,452,0,3,455,0
48,209,11,2,1,45,0,0,0,0,0,1,0,0,269,0,2,271,0
49,459,6,6,2,122,0,0,0,0,0,0,1,0,596,0,2,598,0
50,422,3,3,1,107,0,0,1,0,0,0,0,0,537,0,2,539,0
51,244,6,2,0,58,0,0,0,0,0,0,0,0,310,0,1,311,0
52,450,13,10,0,98,1,0,0,0,0,1,0,0,573,0,5,578,0
53,454,3,7,0,95,0,0,0,0,0,1,0,0,560,0,2,562,0
54,309,7,15,0,127,0,0,0,0,1,0,0,1,460,0,3,463,0
55,297,4,5,2,142,0,0,0,0,0,0,0,0,450,0,0,450,0
56,176,168,31,2,272,1,0,1,2,2,0,0,1,656,0,1,657,0
57,74,223,36,1,198,0,0,1,1,0,0,0,1,535,0,2,537,0
58,86,169,16,1,211,2,0,1,1,0,0,0,0,487,0,0,487,0
59,236,137,20,6,327,1,0,1,2,0,0,1,0,731,0,1,732,0
60,400,27,7,0,117,1,0,0,1,0,0,0,0,553,0,2,555,0
61,322,15,4,0,109,0,0,0,0,0,0,0,0,450,0,2,452,0
62,387,3,14,1,135,0,1,0,0,0,0,1,0,542,0,3,545,0
63,287,4,3,2,83,0,0,0,0,0,0,0,0,379,0,1,380,0
64,274,73,14,1,219,1,0,0,0,1,1,3,0,587,0,1,588,0
65,265,33,10,2,165,2,0,0,0,0,0,0,0,477,0,2,479,0
66,207,5,13,1,57,0,0,0,1,0,0,0,0,284,0,0,284,0
67,164,1,5,0,34,0,0,0,0,0,0,0,0,204,0,0,204,0
68,449,5,9,1,117,0,0,0,1,0,0,0,0,582,0,3,585,0
69,203,51,8,2,46,0,0,0,1,1,0,0,0,312,0,4,316,0
70,410,26,6,0,70,0,0,0,0,0,0,0,0,512,0,1,513,0
71,321,8,6,1,76,0,0,0,0,0,0,0,0,412,0,2,414,0
72,328,14,1,1,63,2,0,0,0,0,1,0,0,410,0,3,413,0
73,314,20,13,2,122,0,0,0,0,0,0,0,0,471,0,0,471,0
74,372,6,6,0,56,1,0,0,0,2,0,0,0,443,0,0,443,0
75,393,119,18,1,241,0,0,0,1,1,0,0,3,777,0,3,780,0
76,235,97,12,1,117,0,0,0,0,0,0,0,1,463,0,3,466,0
77,128,61,21,2,97,0,0,1,1,2,0,0,0,313,0,0,313,0
78,350,54,13,0,145,1,1,0,0,2,0,0,0,566,0,5,571,0
79,201,25,21,2,119,0,0,0,0,1,0,0,0,369,0,0,369,0
80,135,99,24,1,164,0,0,0,2,1,2,2,2,432,0,4,436,0
81,128,354,32,4,461,1,1,0,2,1,1,0,0,985,0,1,986,0
82,134,330,31,2,380,2,0,0,1,1,1,1,0,883,0,1,884,0
83,85,209,25,1,254,2,1,2,0,0,3,0,0,582,0,7,589,0
84,82,157,44,1,307,0,2,0,0,0,0,0,0,593,0,1,594,0
85,71,156,17,0,207,1,0,0,0,0,0,2,0,454,0,4,458,0
86,103,120,71,2,202,1,2,2,0,0,0,0,1,504,0,1,505,0
87,141,59,26,1,165,0,1,1,1,4,1,3,2,405,0,2,407,0
88,118,118,49,2,309,0,1,3,1,5,8,1,0,615,0,1,616,0
89,228,177,43,0,167,1,1,1,2,1,2,0,2,625,0,5,630,0
90,610,18,15,1,115,1,1,0,0,0,0,1,0,762,0,6,768,0
91,87,44,27,2,86,0,0,1,0,1,0,0,1,249,0,1,250,0
92,194,295,59,2,326,1,0,0,1,3,0,0,2,883,0,2,885,0
93,344,183,28,2,215,1,0,0,1,0,1,2,3,780,0,3,783,0
94,148,6,6,0,37,0,0,0,0,0,0,0,0,197,0,3,200,0
95,142,74,40,3,262,3,0,0,0,0,1,0,1,526,0,3,529,0
96,208,113,24,2,187,1,0,0,0,3,0,2,0,540,0,4,544,0
97,253,166,40,0,334,0,0,0,1,0,1,1,0,796,0,2,798,0
98,92,60,5,0,117,0,2,0,0,0,0,0,0,276,0,0,276,0
99,341,290,42,0,180,0,1,0,0,0,1,0,1,856,0,3,859,0
100,176,126,71,4,241,2,2,1,1,6,2,3,3,638,0,4,642,0
101,100,43,7,0,55,0,0,0,0,3,0,0,1,209,0,3,212,0
102,107,143,16,0,167,0,0,0,0,0,0,0,0,433,0,2,435,0
103,88,139,13,1,141,1,0,0,1,0,0,1,1,386,0,3,389,0
104,98,135,19,0,125,0,0,0,0,0,0,0,1,378,0,3,381,0
105,141,164,17,2,191,0,0,0,0,0,1,0,1,517,0,8,525,0
106,146,189,33,1,201,0,0,0,0,0,0,0,0,570,0,4,574,0
107,76,90,13,1,89,0,1,0,1,0,0,0,0,271,0,2,273,0
108,115,144,16,1,172,0,0,0,0,0,0,0,0,448,0,2,450,0
109,130,166,15,0,169,0,1,0,0,0,0,1,1,483,0,2,485,0
110,105,91,14,1,111,0,0,0,1,0,0,0,0,323,0,0,323,0
111,312,125,11,0,197,0,0,1,0,1,0,0,0,647,0,3,650,0
112,148,125,23,0,222,1,0,0,0,0,0,1,0,520,0,0,520,0
113,133,160,21,2,209,0,0,0,0,1,0,0,0,526,0,6,532,0
114,200,110,23,4,165,2,1,0,0,0,0,1,0,506,0,1,507,0
115,200,74,13,0,144,0,0,0,1,0,0,0,0,432,0,3,435,0
116,180,63,11,0,83,1,0,1,0,0,0,0,0,339,0,1,340,0
117,154,156,27,0,219,0,0,0,0,0,1,1,0,558,0,3,561,0
118,99,111,17,0,165,2,0,0,0,1,1,0,0,396,0,1,397,0
119,200,233,34,0,275,0,0,0,1,2,0,0,0,745,0,1,746,0
120,326,113,19,0,200,0,0,0,1,0,0,0,1,660,0,4,664,0
121,189,99,18,0,162,0,1,1,0,0,0,1,0,471,0,0,471,0
122,105,112,11,0,164,0,1,1,0,1,0,0,1,396,0,3,399,0
123,90,141,14,1,108,1,1,0,0,0,0,0,1,357,0,3,360,0
124,227,186,28,2,243,0,0,0,0,1,1,1,1,690,0,6,696,0
125,99,87,17,0,113,1,0,0,0,0,0,0,0,317,0,1,318,0
126,142,189,21,1,195,0,0,0,0,1,0,1,1,551,0,2,553,0
127,64,136,20,1,191,1,0,0,0,0,0,0,1,414,0,4,418,0
128,117,158,21,0,207,0,1,0,0,0,0,1,1,506,0,3,509,0
129,175,235,25,0,262,0,1,0,1,0,0,0,1,700,0,3,703,0
130,428,31,132,1,283,0,0,2,0,0,1,0,1,879,0,7,886,0
131,206,195,44,1,317,0,0,0,1,0,0,0,2,766,0,5,771,0
132,89,185,10,0,168,1,0,0,0,0,0,0,1,454,0,2,456,0
133,96,202,16,0,179,1,0,0,0,0,0,0,0,494,0,6,500,0
134,85,141,8,2,131,0,0,1,0,0,0,0,0,368,0,1,369,0
135,210,284,13,0,251,1,0,0,0,1,0,2,1,763,0,2,765,0
136,362,153,29,1,178,0,1,2,0,0,0,0,1,727,0,1,728,0
137,137,206,21,0,248,1,0,2,0,0,0,0,1,616,0,1,617,0
138,493,15,20,2,135,0,0,0,0,0,0,1,0,666,0,5,671,0
139,325,1,9,1,64,0,0,0,0,0,0,1,0,401,0,3,404,0
140,264,106,35,0,211,0,0,0,0,0,0,0,0,616,0,2,618,0
141,139,41,7,1,101,1,0,0,0,0,0,0,0,290,0,0,290,0
142,211,134,14,2,250,0,0,1,1,1,0,2,0,616,0,2,618,0
143,277,72,12,0,101,0,2,0,0,1,2,0,0,467,0,2,469,0
144,184,51,12,0,94,0,0,0,0,0,0,0,0,341,0,2,343,0
145,189,173,16,0,258,1,0,0,0,0,0,0,0,637,0,3,640,0
146,386,37,5,1,73,0,0,1,0,0,0,0,0,503,0,1,504,0
147,340,1,4,1,73,0,1,0,0,0,0,0,0,420,0,0,420,0
148,481,40,9,1,146,1,0,1,0,0,0,2,0,681,0,1,682,0
149,623,24,10,1,144,1,0,0,2,0,0,0,0,805,0,1,806,0
150,263,70,5,0,88,0,0,0,0,0,0,0,0,426,0,0,426,0
151,254,164,32,0,251,0,0,0,0,0,0,0,0,701,0,4,705,0
152,131,149,19,1,177,0,1,0,0,0,0,0,2,480,0,0,480,0
153,80,145,8,0,110,1,0,1,1,0,0,0,1,347,0,2,349,0
154,178,111,20,0,131,0,0,0,0,0,0,0,0,440,0,0,440,0
155,139,73,24,2,331,0,0,0,1,0,0,1,1,572,0,2,574,0
156,179,94,42,2,449,2,0,1,1,1,1,2,0,774,0,4,778,0
157,223,68,17,1,353,1,0,1,1,2,2,0,0,669,0,2,671,0
158,233,269,66,0,335,0,0,0,0,0,0,0,0,903,0,2,905,0
159,107,141,17,0,145,0,0,0,0,0,0,0,0,410,0,1,411,0
160,91,42,17,0,98,0,2,0,0,0,0,0,0,250,0,1,251,0
161,132,126,20,0,110,0,0,1,0,0,0,0,1,390,0,3,393,0
162,210,101,20,0,229,0,1,2,0,0,0,1,0,564,0,5,569,0
163,210,97,21,2,136,0,0,0,0,0,0,1,0,467,0,0,467,0
164,88,129,9,0,143,1,0,0,0,0,0,1,0,371,0,0,371,0
165,88,76,18,1,115,1,0,1,0,1,0,0,0,301,0,1,302,0
166,207,96,17,1,168,0,0,1,0,0,0,0,1,491,0,2,493,0
167,177,140,35,0,209,0,1,0,0,1,0,1,1,565,0,3,568,0
168,178,124,25,1,150,1,0,0,0,0,0,1,0,480,0,4,484,0
169,201,236,27,0,232,0,0,0,0,0,0,1,0,697,0,4,701,0
170,178,191,36,2,221,0,0,1,1,1,0,1,1,633,0,5,638,0
171,235,50,50,2,191,2,0,0,0,2,0,1,1,534,0,6,540,0
172,219,93,39,1,220,1,0,1,1,3,0,0,0,578,0,1,579,0
173,177,156,29,0,162,0,1,0,0,6,0,0,0,531,0,2,533,0
174,60,99,6,0,89,0,0,0,0,0,0,1,0,255,0,1,256,0
175,91,334,26,0,159,1,0,0,1,1,0,2,3,618,0,3,621,0
176,117,257,69,0,178,0,1,1,3,0,1,2,3,632,0,7,639,0
177,117,346,39,5,239,0,0,1,4,0,2,2,1,756,0,1,757,0
178,259,199,39,1,191,0,1,2,3,2,0,3,2,702,0,4,706,0
179,109,203,32,1,256,0,0,0,1,2,0,2,2,608,0,10,618,0
180,77,207,12,2,217,1,1,0,0,2,3,2,2,526,0,1,527,0
181,77,510,46,0,134,0,0,1,2,2,0,2,3,777,0,3,780,0
182,87,281,19,0,99,0,1,0,1,0,0,1,4,493,0,1,494,0
183,226,218,12,0,64,0,0,0,1,0,0,0,1,522,0,1,523,0
184,430,87,23,1,60,2,0,1,0,0,0,0,0,604,0,2,606,0
185,160,302,58,0,214,0,0,1,0,2,1,1,1,740,0,3,743,0
186,230,298,45,2,195,1,0,0,0,1,0,1,0,773,0,1,774,0
187,55,250,34,1,166,0,0,1,0,1,0,0,3,511,0,3,514,0
188,106,249,49,2,307,1,0,3,3,5,0,2,6,733,0,9,742,0
189,144,297,86,0,343,0,2,1,2,2,0,0,2,879,0,4,883,0
190,83,206,29,2,172,1,0,1,1,0,2,0,3,500,0,1,501,0
191,182,320,47,2,276,1,1,1,2,1,1,0,1,835,0,3,838,0
192,267,119,31,0,208,1,1,1,0,3,0,2,1,634,0,0,634,0
193,244,267,106,0,172,0,0,1,0,1,1,1,4,797,0,6,803,0
194,80,395,17,1,65,0,0,0,0,0,0,0,4,562,0,1,563,0
195,150,305,35,1,173,0,0,0,0,2,1,0,2,669,0,1,670,0
196,55,425,13,0,100,0,0,0,0,0,0,1,2,596,0,3,599,0
197,54,357,17,1,84,0,0,0,0,1,0,0,0,514,0,0,514,0
198,53,288,10,0,75,0,1,0,0,0,0,0,1,428,0,3,431,0
199,179,275,27,0,135,1,0,1,0,0,0,0,1,619,0,0,619,0
200,101,357,21,1,195,1,0,0,1,1,0,0,2,680,0,3,683,0
201,65,314,19,0,162,1,0,0,0,1,2,1,1,566,0,1,567,0
202,181,118,23,0,189,1,1,0,0,0,0,1,0,514,0,2,516,0
203,297,97,17,3,319,2,0,0,2,2,0,0,0,739,0,4,743,0
204,82,114,20,1,134,0,0,0,0,0,0,1,1,353,0,2,355,0
205,192,150,23,0,211,2,0,0,1,1,0,4,2,586,0,4,590,0
206,388,85,17,0,204,0,0,0,0,1,0,0,0,695,0,1,696,0
207,381,3,7,1,83,0,0,0,0,0,0,0,0,475,0,0,475,0
208,360,4,10,0,35,0,0,1,0,0,0,0,0,410,0,0,410,0
209,533,19,1,0,93,0,0,0,0,0,0,1,0,647,0,2,649,0
210,606,28,11,0,138,0,0,0,0,0,1,0,0,784,0,4,788,0
211,438,192,24,0,204,1,1,1,1,1,0,0,3,866,0,5,871,0
212,403,16,4,0,98,0,3,1,1,0,0,0,1,527,0,3,530,0
213,445,5,3,0,107,0,1,0,0,0,0,0,0,561,0,4,565,0
214,248,246,60,1,294,0,1,1,0,0,0,1,0,852,0,6,858,0
215,213,50,67,0,147,0,0,1,1,2,0,0,0,481,0,3,484,0
216,345,77,19,0,329,0,1,1,0,0,0,0,2,774,0,1,775,0
217,210,298,66,1,296,0,2,7,0,4,1,2,3,890,0,2,892,0
218,223,97,16,0,170,0,0,0,1,0,0,0,1,508,0,2,510,0
219,214,423,36,1,255,0,0,0,0,2,0,1,3,935,0,6,941,0
220,140,303,26,1,156,0,0,0,0,0,0,0,1,627,0,2,629,0
221,102,257,31,2,137,2,0,0,0,3,1,1,0,536,0,6,542,0
222,236,185,120,3,205,1,3,0,1,3,2,1,3,763,0,5,768,0
223,348,217,32,0,190,2,0,0,0,0,0,0,0,789,0,2,791,0
224,127,360,43,3,169,1,0,0,0,1,2,2,1,709,0,5,714,0
225,332,63,8,1,89,0,0,0,0,1,0,0,0,494,0,1,495,0
226,146,121,14,0,57,0,0,0,0,0,0,0,1,339,0,2,341,0
227,219,232,25,0,238,0,0,3,0,1,0,0,3,721,0,3,724,0
228,95,138,15,1,110,1,0,0,0,2,0,0,2,364,0,2,366,0
229,234,233,27,1,273,0,1,0,0,2,1,2,0,774,0,3,777,0
230,119,191,19,5,161,1,2,2,0,0,1,0,4,505,0,3,508,0
231,120,308,36,0,258,1,0,0,1,2,0,2,4,732,0,0,732,0
232,76,273,34,1,144,0,3,0,1,0,0,1,5,538,0,2,540,0
233,164,187,58,1,348,0,1,0,0,3,0,0,0,762,0,3,765,0
234,83,273,21,2,242,0,1,0,2,0,0,1,2,627,0,3,630,0
235,178,238,88,0,149,2,0,0,0,0,0,0,0,655,0,3,658,0
236,91,105,48,0,73,1,3,0,2,1,0,1,2,327,0,3,330,0
237,183,173,99,0,161,1,1,0,0,0,1,1,1,621,0,1,622,0
238,201,249,70,0,153,0,0,0,1,0,0,0,1,675,0,3,678,0
239,220,301,95,2,218,0,0,3,1,0,1,1,3,845,0,2,847,0
240,87,328,32,0,140,0,0,1,3,0,1,0,2,594,0,2,596,0
241,70,132,23,0,105,2,0,0,0,0,1,0,1,334,0,0,334,0
242,93,113,19,0,107,0,0,0,0,1,1,0,2,336,0,1,337,0
243,134,218,45,0,243,0,0,1,1,0,1,1,4,648,0,0,648,0
244,219,198,89,1,181,0,0,0,0,0,1,1,0,690,0,1,691,0
245,589,22,8,1,92,1,0,0,0,1,0,1,0,715,0,16,731,0
246,117,166,13,0,159,1,1,0,0,1,0,0,0,458,0,3,461,0
247,169,283,26,1,258,2,0,1,1,4,0,2,12,759,0,5,764,0
248,135,181,30,1,224,0,0,0,0,0,0,1,1,573,0,1,574,0
249,134,251,17,2,237,0,0,0,2,5,0,1,3,652,0,5,657,0
250,202,296,15,3,295,1,0,4,0,1,2,2,5,826,0,7,833,0
251,144,233,31,0,277,1,0,1,0,2,0,2,4,695,0,5,700,0
252,99,176,10,0,334,1,0,1,1,1,0,1,0,624,0,1,625,0
253,358,92,49,0,247,2,1,1,0,1,0,2,0,753,0,3,756,0
254,108,86,10,2,98,0,0,0,0,1,0,0,0,305,0,0,305,0
255,291,214,43,0,210,2,0,2,0,0,0,0,1,763,0,1,764,0
256,135,89,24,1,202,1,1,1,1,1,0,0,1,457,0,1,458,0
257,136,122,36,1,259,1,0,0,0,1,0,0,2,558,0,1,559,0
258,75,176,26,2,258,2,0,0,0,0,0,0,0,539,0,1,540,0
259,110,231,23,1,195,0,0,0,1,1,0,2,4,568,0,1,569,0
260,97,202,57,1,225,1,0,0,0,1,1,1,2,588,0,3,591,0
261,87,132,71,2,166,2,0,2,0,1,0,0,2,465,0,2,467,0
262,426,85,29,3,145,0,0,1,0,0,0,0,0,689,0,4,693,0
263,363,81,12,0,75,0,0,0,0,0,0,0,0,531,0,2,533,0
264,323,11,8,0,55,0,0,0,0,0,0,0,0,397,0,4,401,0
265,247,4,3,0,28,0,0,1,0,1,0,1,0,285,0,0,285,0
266,440,8,14,0,66,1,0,0,0,0,1,1,0,531,0,2,533,0
267,557,9,6,1,154,0,0,1,0,2,4,1,1,736,0,4,740,0
268,353,4,12,2,72,0,1,0,0,0,0,1,0,445,0,0,445,0
269,222,84,16,0,180,0,0,1,0,0,0,0,0,503,0,1,504,0
270,170,167,19,0,104,2,0,0,1,3,1,0,3,470,0,4,474,0
271,51,116,11,1,248,1,0,2,0,3,0,2,0,435,0,0,435,0
272,355,72,30,2,116,1,0,0,0,0,0,1,0,577,0,3,580,0
273,406,86,26,2,228,0,0,2,1,1,0,0,3,755,0,2,757,0
274,100,118,44,0,143,0,0,0,0,1,0,1,1,408,0,0,408,0
275,231,116,12,2,169,1,2,0,0,0,0,0,0,533,0,4,537,0
276,115,138,20,0,156,0,0,0,0,1,0,0,1,431,0,4,435,0
277,160,183,20,0,85,2,0,1,0,0,1,1,4,457,0,6,463,0
278,134,193,79,0,185,2,0,5,1,0,0,1,5,605,0,2,607,0
279,127,189,52,0,179,0,0,1,0,0,0,0,1,549,0,0,549,0
280,148,468,20,0,117,0,1,0,0,0,0,1,2,757,0,1,758,0
281,121,260,9,0,65,0,0,0,0,1,0,1,0,457,0,0,457,0
282,173,264,17,3,179,0,0,2,0,0,0,1,0,639,0,2,641,0
283,230,476,36,0,233,0,0,0,0,0,0,2,3,980,0,4,984,0
284,79,155,19,1,189,2,1,0,0,0,1,1,0,448,0,0,448,0
285,43,131,31,0,268,0,0,0,0,1,1,0,0,475,0,0,475,0
286,135,162,23,1,179,0,1,0,0,1,0,0,1,503,0,2,505,0
287,507,36,15,0,116,0,0,0,0,0,0,0,0,674,0,0,674,0
288,342,139,18,2,171,0,0,0,0,1,1,3,1,678,0,2,680,0
289,260,77,12,0,194,0,1,0,2,0,0,2,1,549,0,2,551,0
290,625,14,7,0,121,0,0,0,0,0,0,0,0,767,0,3,770,0
291,102,286,37,0,227,0,0,1,0,0,1,0,2,656,0,4,660,0
292,501,32,13,1,116,0,0,0,0,0,0,0,0,663,0,3,666,0
293,144,113,22,1,311,0,0,2,0,0,0,0,1,594,0,1,595,0
294,179,163,5,1,217,0,0,1,1,3,1,1,0,572,0,4,576,0
295,165,240,29,3,370,1,1,0,1,2,0,1,0,813,0,3,816,0
296,134,126,35,3,267,1,0,1,1,0,0,2,0,570,0,1,571,0
297,124,185,17,1,185,1,0,2,0,2,0,0,0,517,0,2,519,0
298,100,141,7,1,201,1,1,0,1,0,1,0,2,456,0,1,457,0
299,281,58,10,0,183,1,0,1,1,1,0,1,0,537,0,3,540,0
300,383,23,2,0,111,0,0,1,0,0,0,1,0,521,0,1,522,0
301,608,15,4,0,117,0,0,2,1,0,0,0,0,747,0,1,748,0
302,350,12,7,0,71,0,0,0,0,0,0,1,0,441,0,1,442,0
303,576,80,13,1,133,0,2,0,0,1,0,0,0,806,0,3,809,0
304,476,109,12,0,162,1,0,0,0,0,0,0,1,761,0,4,765,0
305,273,340,13,1,250,0,0,0,0,1,1,0,0,879,0,3,882,0
306,129,220,15,0,271,3,1,1,2,1,0,1,4,648,0,5,653,0
307,134,197,7,2,382,0,0,1,0,2,2,0,1,728,0,3,731,0
308,176,354,16,1,225,0,0,0,0,0,0,0,0,772,0,1,773,0
309,150,218,15,1,207,1,0,1,0,1,0,1,2,597,0,0,597,0
310,216,26,8,0,90,0,0,0,1,0,0,0,0,341,0,0,341,0
311,211,162,32,0,182,0,0,1,0,0,1,0,0,589,0,2,591,0
312,193,195,23,0,183,1,0,0,0,0,0,0,0,595,0,3,598,0
313,267,173,31,2,220,0,0,1,0,1,2,1,1,699,0,1,700,0
314,222,7,31,1,266,0,0,0,0,0,0,0,1,528,0,1,529,0
315,351,18,25,1,172,1,1,1,1,0,1,0,1,573,0,4,577,0
316,351,62,43,2,360,2,0,0,0,0,0,1,2,823,0,2,825,0
317,273,94,31,1,373,0,0,3,1,1,1,0,1,779,0,0,779,0
318,238,139,35,2,404,2,0,0,1,0,1,0,0,822,0,1,823,0
319,212,65,18,0,274,1,0,0,1,0,0,0,0,571,0,0,571,0
320,354,195,15,1,210,1,0,0,1,0,0,2,0,779,0,3,782,0
321,177,152,13,3,519,3,1,1,2,4,1,2,2,880,0,6,886,0
322,192,188,22,2,322,1,1,1,0,1,0,1,0,731,0,2,733,0
323,274,165,46,1,447,0,1,1,1,1,2,1,1,941,0,0,941,0
324,214,134,33,0,483,0,0,0,0,0,0,0,0,864,0,2,866,0
325,537,24,8,0,101,0,2,0,0,1,0,0,0,673,0,0,673,0
326,673,29,18,0,141,1,0,0,0,0,0,0,0,862,0,2,864,0
327,253,209,28,1,407,1,1,1,0,1,0,0,2,904,0,7,911,0
328,136,103,10,4,273,0,0,0,0,1,1,1,1,530,0,1,531,0
329,283,11,28,0,224,2,0,0,1,1,0,0,0,550,0,1,551,0
330,129,7,24,3,435,0,0,0,0,0,0,0,0,598,0,2,600,0
331,207,7,20,2,345,0,0,1,1,0,1,0,0,584,0,0,584,0
332,173,7,14,3,287,0,0,0,0,0,0,0,1,485,0,2,487,0
333,215,16,23,6,603,3,2,1,0,3,0,0,2,874,0,2,876,0
334,297,26,36,1,152,0,0,1,0,0,0,0,0,513,0,1,514,0
335,71,55,20,1,150,0,0,3,0,2,0,1,1,304,0,3,307,0
336,247,145,36,5,240,2,0,1,0,1,0,0,2,679,0,2,681,0
337,110,140,12,0,229,2,0,1,0,0,1,0,0,495,0,4,499,0
338,102,367,26,1,77,1,0,0,0,0,0,0,0,574,0,3,577,0
339,283,69,50,0,214,0,0,0,1,1,0,0,1,619,0,1,620,0
340,502,18,20,0,119,0,1,0,0,1,0,0,0,661,0,2,663,0
341,411,28,21,0,139,0,0,0,0,3,0,0,0,602,0,1,603,0
342,277,144,40,2,262,1,0,3,1,1,1,0,1,733,0,3,736,0
343,210,449,25,0,184,0,2,0,0,2,0,1,0,873,0,1,874,0
344,256,71,8,0,139,0,0,0,0,0,0,0,0,474,0,0,474,0
345,292,135,12,0,128,0,0,1,0,0,0,0,0,568,0,0,568,0
346,237,115,21,1,253,1,0,1,0,0,0,0,0,629,0,0,629,0
347,362,113,47,0,357,1,0,1,0,0,0,2,1,884,0,2,886,0
348,343,26,32,1,249,0,0,0,0,1,1,0,0,653,0,0,653,0
349,71,90,28,0,198,1,0,1,0,0,0,0,1,390,0,2,392,0
350,237,120,26,2,319,2,0,1,0,2,0,0,0,709,0,2,711,0
351,382,52,52,3,439,2,2,1,0,1,1,1,0,936,0,1,937,0
352,122,282,36,0,245,1,0,6,1,3,0,0,2,698,0,4,702,0
353,247,257,26,0,304,9,1,2,0,4,0,2,1,853,0,1,854,0
354,260,189,35,0,275,1,1,2,0,1,0,0,0,764,0,4,768,0
355,80,70,8,0,71,0,0,1,0,0,0,0,0,230,0,2,232,0
356,90,159,11,0,119,1,0,1,0,0,0,2,1,384,0,1,385,0
357,209,370,19,0,213,2,1,4,1,2,0,1,3,825,0,5,830,0
358,99,151,14,0,128,0,0,2,0,12,2,0,2,410,0,2,412,0
359,248,144,22,0,180,0,0,0,0,2,0,0,0,596,0,1,597,0
360,229,172,21,1,230,1,0,3,1,4,1,1,2,666,0,0,666,0
361,141,152,30,0,241,0,0,2,0,1,0,1,1,569,0,2,571,0
362,255,148,31,1,240,0,1,2,0,3,1,1,1,684,0,4,688,0
363,210,228,32,1,228,1,0,3,1,1,0,0,0,705,0,2,707,0
364,94,171,11,0,159,0,0,1,1,2,0,1,1,441,0,2,443,0
365,251,134,40,2,349,0,1,1,0,5,1,2,0,786,0,4,790,0
366,225,151,29,0,339,0,0,1,1,1,1,2,0,750,0,2,752,0
367,159,170,51,1,167,0,0,3,0,0,0,0,0,551,0,1,552,0
368,213,269,27,1,124,0,0,3,1,0,1,0,1,640,0,0,640,0
369,273,174,73,1,223,1,0,7,0,3,0,2,1,758,0,3,761,0
370,188,158,33,4,456,1,8,5,2,4,0,0,3,862,0,4,866,0
371,119,123,27,3,273,0,5,1,2,3,0,2,1,559,0,6,565,0
372,263,190,27,3,379,0,0,2,0,2,0,0,0,866,0,3,869,0
373,159,182,16,0,338,2,0,1,0,1,0,2,2,703,0,3,706,0
374,129,108,36,1,378,1,1,3,1,1,1,1,2,663,0,5,668,0
375,174,177,27,0,331,1,1,7,2,5,1,1,5,732,0,4,736,0
376,234,260,46,0,336,1,0,3,0,1,0,1,2,884,0,0,884,0
377,207,166,54,0,328,1,0,3,1,0,1,1,1,763,0,0,763,0
378,396,17,16,0,108,3,2,2,0,0,0,0,0,544,0,5,549,0
379,157,170,20,0,208,0,2,1,0,2,0,1,1,562,0,1,563,0
380,142,316,39,0,283,3,1,4,0,1,0,2,0,791,0,0,791,0
381,67,78,9,0,90,0,0,1,0,3,0,0,0,248,0,0,248,0
382,135,186,38,1,266,0,1,3,0,3,0,0,0,633,0,2,635,0
383,142,205,37,0,265,0,1,3,1,1,2,1,1,659,0,3,662,0
384,139,241,12,0,162,3,0,2,0,0,0,0,1,560,0,2,562,0
385,213,95,17,2,310,0,0,2,0,1,1,0,0,641,0,1,642,0
386,144,59,27,1,143,1,0,3,0,1,0,0,0,379,0,2,381,0
387,175,102,30,0,287,0,0,9,0,2,0,1,0,606,0,4,610,0
388,127,111,14,0,253,0,0,2,0,1,1,2,1,512,0,0,512,0
389,167,239,30,1,263,1,1,1,1,1,1,1,1,708,0,3,711,0
390,184,247,27,1,190,1,0,5,0,0,0,1,0,656,0,5,661,0
391,225,182,15,2,166,0,1,0,0,3,1,0,1,596,0,2,598,0
392,173,41,9,0,215,0,1,0,0,0,1,0,1,441,0,2,443,0
393,131,185,13,3,378,1,0,14,2,3,1,0,3,734,0,4,738,0
394,92,172,12,1,181,0,0,8,0,1,0,0,1,468,0,2,470,0
395,334,34,31,1,333,0,0,10,0,0,0,0,1,744,0,0,744,0
396,158,265,13,0,214,0,0,7,0,0,0,1,0,658,0,3,661,0
397,187,259,35,1,130,0,2,4,0,0,0,0,1,619,0,3,622,0
398,214,221,25,1,291,0,0,10,2,4,2,2,0,772,0,11,783,0
399,180,256,15,0,234,1,0,6,0,0,0,0,1,693,0,2,695,0
