Polling Station No,N.R.KARTHIKEYAN,RAJABU NISHA.Z,S.P.VELUMANI,SATHISH RAJU (ALIAS) K.P.R. SATHISH,SHAJAHAN.S,ARULKUMAR.P,KALAIVANI.S,KARTHIKEYAN.M,KARTHIKEYAN.R,KARTHIKEYAN.R-THONDAMUTHUR,KARTHIKEYAN.R-POOLUVAPATTI,KOWSALYA.V,SIVARAMAN.C,DEEPA.G.S,DEVADASS.K,NIRMALKUMAR.R,BALAMANI.V,MANOKARAN.K,RAFEEQ.A.M.,VIJAYA.K,VISWANATHAN.M,Total Valid Votes,Rejected Votes,NOTA,Total,Tendered Votes
1,195,6,342,188,0,2,1,1,0,0,1,1,3,1,0,2,2,0,0,0,0,745,0,3,748,0
2,116,15,388,160,0,1,2,0,0,0,0,0,0,1,1,2,2,0,1,2,0,691,0,2,693,0
3,204,25,422,195,1,1,1,0,0,0,0,0,2,3,0,1,3,3,2,0,0,863,0,2,865,0
4,180,22,274,212,0,0,0,1,0,1,0,1,0,0,0,0,1,0,0,0,1,693,0,1,694,0
5,210,37,324,266,0,0,0,0,0,0,0,0,1,1,0,0,0,0,1,0,0,840,0,4,844,0
6,198,34,266,241,0,0,0,0,0,1,0,0,1,0,0,1,0,0,2,1,0,745,0,5,750,0
7,114,10,185,134,0,0,1,0,0,0,0,0,1,1,0,0,2,0,1,1,1,451,0,0,451,0
8,133,22,218,223,0,0,0,0,1,0,0,0,0,0,0,0,1,0,0,0,0,598,0,1,599,0
9,178,17,341,298,1,0,2,0,0,0,2,0,1,0,2,2,2,2,1,1,0,850,0,1,851,0
10,120,26,254,242,0,0,0,0,1,2,1,0,1,2,1,2,0,1,1,0,0,654,0,3,657,0
11,191,24,299,258,3,1,1,0,0,1,2,0,0,0,1,2,0,1,0,1,0,785,0,2,787,0
12,161,30,249,309,1,0,1,0,0,2,1,0,0,0,0,1,0,0,2,0,1,758,0,5,763,0
13,156,21,208,176,1,0,0,1,0,2,0,0,0,0,0,2,0,0,0,0,1,568,0,1,569,0
14,133,16,231,166,1,0,0,0,0,0,0,0,0,0,0,0,1,1,2,1,0,552,0,0,552,0
15,75,6,285,162,0,0,0,0,0,0,1,1,2,3,0,1,0,1,3,0,0,540,0,0,540,0
16,184,18,231,266,0,1,0,0,0,0,0,0,1,0,0,0,2,0,2,0,0,705,0,2,707,0
17,140,19,321,198,1,1,0,0,0,0,0,1,0,2,0,1,2,0,3,0,1,690,0,3,693,0
18,141,17,280,313,3,0,0,0,0,1,0,1,0,0,0,0,1,3,3,2,0,765,0,2,767,0
19,134,37,458,191,2,1,1,0,0,1,0,1,0,2,0,2,1,1,3,0,0,835,0,2,837,0
20,165,21,410,165,0,0,1,1,0,1,1,0,1,3,0,3,1,0,1,0,0,774,0,6,780,0
21,167,49,370,193,3,0,0,0,0,0,2,0,0,2,0,3,0,1,2,0,0,792,0,5,797,0
22,159,24,481,158,0,0,0,0,0,0,0,0,0,0,0,1,0,0,0,0,1,824,0,6,830,0
23,184,26,458,164,0,3,1,1,1,0,1,0,4,3,0,2,1,0,3,1,3,856,0,1,857,0
24,123,17,380,127,0,0,0,0,0,0,0,0,3,0,0,0,2,0,2,1,1,656,0,1,657,0
25,144,13,312,127,0,0,0,0,0,0,1,1,1,1,1,2,1,0,1,0,0,605,0,3,608,0
26,136,23,467,138,2,1,0,0,0,0,3,0,0,0,0,0,1,1,0,1,0,773,0,1,774,0
27,76,22,258,96,0,1,1,0,0,0,2,0,0,0,0,1,1,0,1,0,0,459,0,0,459,0
28,206,10,261,141,0,0,0,1,0,0,1,3,4,2,0,1,1,0,1,0,1,633,0,0,633,0
29,250,40,352,266,1,0,1,0,0,0,2,0,0,1,0,2,0,0,2,2,0,919,0,5,924,0
30,174,18,280,183,0,1,0,1,0,0,2,0,1,2,2,2,3,0,2,0,0,671,0,2,673,0
31,242,25,311,223,1,2,0,0,0,2,0,0,0,2,0,1,3,0,0,1,0,813,0,3,816,0
32,191,23,283,299,0,1,1,0,0,0,0,2,0,0,0,2,1,0,1,0,0,804,0,3,807,0
33,180,25,374,289,3,2,2,0,0,1,5,1,2,3,1,3,1,3,1,0,1,897,0,4,901,0
34,176,25,237,211,0,0,0,0,0,0,0,1,1,0,1,0,1,0,2,0,0,655,0,6,661,0
35,239,33,289,220,1,1,0,0,0,0,1,0,2,5,0,0,1,0,0,0,1,793,0,3,796,0
36,194,23,358,291,1,0,0,1,0,1,0,0,2,0,0,0,1,1,2,1,0,876,0,8,884,0
37,198,18,273,92,0,0,1,0,0,0,0,0,0,2,0,3,7,0,5,4,0,603,0,4,607,0
38,154,8,228,121,1,0,0,0,0,0,1,1,2,3,1,1,1,0,0,2,0,524,0,0,524,0
39,144,17,392,132,0,0,0,0,0,3,2,0,0,0,0,1,0,0,0,0,0,691,0,1,692,0
40,153,20,410,211,2,1,1,0,0,1,2,0,2,0,0,0,3,0,2,1,0,809,0,3,812,0
41,238,9,307,188,0,1,1,2,0,0,0,0,0,1,1,2,2,0,1,1,1,755,0,0,755,0
42,135,13,272,158,1,2,1,0,0,1,0,0,4,2,1,1,0,1,2,0,0,594,0,2,596,0
43,221,15,223,166,2,0,1,0,0,0,1,0,2,1,1,2,1,1,3,1,1,642,0,3,645,0
44,211,9,468,196,0,0,0,1,1,0,1,2,0,1,0,1,2,4,1,3,1,902,0,0,902,0
45,187,36,407,221,0,0,0,0,0,1,0,0,2,3,1,3,2,1,5,2,0,871,0,5,876,0
46,152,27,461,154,2,1,1,1,1,1,1,0,2,4,2,4,1,5,0,0,0,820,0,5,825,0
47,195,45,389,174,0,1,0,1,0,0,0,0,0,1,3,0,2,3,2,0,0,816,0,3,819,0
48,108,19,145,85,0,0,0,0,1,0,1,0,0,0,0,1,1,0,1,0,0,362,0,0,362,0
49,160,6,300,159,0,0,0,0,0,0,0,0,2,2,0,4,1,1,2,1,0,638,0,1,639,0
50,119,10,248,170,1,0,1,0,0,0,0,0,1,0,1,2,1,1,1,0,0,556,0,3,559,0
51,49,13,269,105,1,0,0,0,0,0,1,0,0,0,1,1,0,0,3,2,0,445,0,0,445,0
52,187,12,327,227,0,0,1,0,0,0,0,1,0,1,0,1,0,0,2,1,0,760,0,1,761,1
53,162,6,244,121,0,1,0,0,0,1,0,0,1,0,0,2,1,2,2,0,0,543,0,1,544,0
54,133,8,311,160,0,0,0,0,0,0,0,0,1,0,1,0,1,0,1,0,0,616,0,2,618,1
55,171,16,290,189,0,0,1,0,0,0,3,0,2,2,1,0,2,0,0,0,0,677,0,2,679,0
56,82,6,320,140,3,0,0,0,0,0,1,0,3,2,0,1,0,0,3,0,0,561,0,0,561,0
57,177,7,509,78,0,0,2,0,0,0,1,1,1,1,2,3,3,0,0,1,1,787,0,1,788,0
58,176,20,463,245,0,0,0,1,0,0,1,0,0,0,0,1,0,1,2,0,1,911,0,2,913,0
59,119,12,337,192,0,0,0,1,0,0,0,0,0,0,0,0,1,2,1,0,0,665,0,1,666,0
60,98,9,220,128,0,0,0,0,0,0,0,0,0,0,0,0,0,0,0,0,0,455,0,0,455,0
61,243,25,335,181,0,0,1,0,0,0,1,0,1,0,1,0,2,0,0,2,0,792,0,4,796,0
62,187,19,423,229,3,2,0,1,0,0,0,1,0,0,0,3,0,0,0,1,0,869,0,2,871,0
63,178,19,99,87,0,0,0,0,0,0,0,0,0,0,0,0,0,0,0,0,0,383,0,4,387,0
64,166,12,190,130,0,0,0,0,0,0,0,0,0,1,0,0,1,0,3,2,0,505,0,1,506,0
65,145,18,509,194,0,0,0,0,0,0,1,0,2,0,0,1,1,1,1,0,0,873,0,4,877,0
66,261,21,407,315,1,2,0,0,0,0,0,0,0,2,1,2,0,0,4,1,0,1017,0,1,1018,0
67,172,12,373,186,0,0,2,0,0,0,0,0,2,1,0,0,1,2,3,0,0,754,0,2,756,0
68,221,11,379,331,0,0,0,0,0,1,1,0,1,2,2,4,2,0,1,0,0,956,0,2,958,0
69,183,11,389,234,1,0,0,0,0,0,0,0,1,0,0,1,1,0,0,0,0,821,0,1,822,0
70,128,17,297,99,0,0,0,1,0,0,0,0,1,1,1,3,4,1,3,1,0,557,0,1,558,0
71,91,7,229,165,0,0,1,0,0,0,1,0,0,1,1,1,0,0,0,0,0,497,0,0,497,0
72,140,10,248,184,0,0,0,0,0,0,0,1,0,0,0,2,0,0,2,0,0,587,0,1,588,0
73,171,15,326,189,1,0,0,0,0,1,0,0,3,5,0,4,3,2,5,0,0,725,0,2,727,0
74,143,23,422,232,1,1,0,0,0,1,2,0,2,1,0,0,1,2,2,2,1,836,0,5,841,0
75,162,12,382,135,0,1,0,1,0,1,0,0,1,0,0,0,0,1,3,2,0,701,0,2,703,0
76,ge 1 133,33,238,227,0,0,1,0,1,1,1,0,2,0,1,0,2,1,1,1,0,643,0,3,646,0
77,143,19,253,255,0,0,0,0,0,2,0,0,1,2,0,1,1,2,1,2,0,682,0,1,683,0
78,158,17,440,149,1,2,0,0,0,0,2,0,2,2,0,1,1,1,0,1,0,777,0,0,777,0
79,199,7,450,153,2,0,2,0,0,0,0,0,1,2,1,3,4,0,4,1,0,829,0,1,830,0
80,179,5,220,104,0,1,1,0,0,0,0,1,1,1,1,3,2,0,1,1,0,521,0,1,522,0
81,188,19,367,335,0,1,0,0,0,0,2,0,6,1,0,2,7,4,1,2,0,935,0,2,937,0
82,149,18,469,165,0,0,0,0,0,0,2,2,1,0,0,2,4,2,4,2,0,820,0,2,822,0
83,140,12,300,249,3,0,0,1,0,1,0,0,1,2,1,2,2,2,3,2,0,721,0,7,728,0
84,143,14,245,248,0,0,0,1,0,0,0,0,0,1,0,0,5,0,4,4,0,665,0,3,668,0
85,167,24,389,378,5,2,0,1,1,0,1,1,3,1,0,2,2,0,2,2,0,981,0,3,984,0
86,81,7,226,109,0,1,1,0,0,0,1,0,1,0,0,0,4,2,0,0,0,433,0,2,435,0
87,207,18,472,176,0,0,0,0,0,0,0,0,1,0,0,0,3,0,0,2,0,879,0,1,880,0
88,127,9,257,159,1,0,0,0,1,1,0,0,0,6,0,5,2,2,0,1,0,571,0,2,573,0
89,140,13,408,156,1,0,0,4,0,2,0,0,0,0,0,1,1,1,1,1,0,729,0,5,734,0
90,196,25,458,222,0,0,0,1,0,0,1,1,1,0,1,1,1,1,7,0,1,917,0,3,920,0
91,167,13,524,214,1,0,0,1,0,1,6,3,5,2,2,7,0,3,0,0,0,949,0,1,950,0
92,259,18,355,219,0,0,1,0,1,0,1,0,1,1,0,5,0,2,1,0,1,865,0,1,866,0
93,104,9,142,133,0,0,1,1,0,0,1,0,0,0,0,0,0,0,0,0,0,391,0,2,393,0
94,111,9,119,160,0,0,0,0,1,0,0,0,0,0,0,0,1,0,0,0,0,401,0,0,401,0
95,141,6,293,208,2,1,1,0,0,0,1,1,0,1,0,0,0,0,0,0,0,655,0,2,657,0
96,93,16,267,193,0,0,0,0,0,0,0,0,0,1,0,0,1,0,0,0,0,571,0,4,575,0
97,145,15,273,260,0,0,1,0,0,0,0,0,1,0,0,0,0,0,0,0,0,695,0,0,695,0
98,76,8,328,119,0,0,1,0,1,0,0,0,0,0,0,0,0,0,0,0,0,533,0,4,537,0
99,105,15,172,160,1,0,0,0,0,0,0,0,0,0,1,0,0,1,0,2,0,457,0,2,459,0
100,166,22,252,241,1,0,1,0,1,0,0,0,0,1,0,0,0,0,0,0,0,685,0,3,688,1
101,138,15,209,212,0,0,0,0,0,0,0,0,0,0,0,0,0,0,0,1,0,575,0,3,578,0
102,188,23,306,246,1,0,1,0,0,0,2,0,0,0,0,0,0,0,0,0,0,767,0,1,768,0
103,97,5,224,224,1,0,0,0,0,1,0,0,0,0,0,0,2,0,1,1,0,556,0,4,560,0
104,79,16,192,149,1,0,0,0,0,0,0,0,0,0,0,0,0,1,0,0,0,438,0,1,439,0
105,152,7,317,185,1,1,0,0,0,0,2,0,1,1,0,0,0,0,0,1,0,668,0,6,674,0
106,96,20,311,146,0,1,0,0,0,1,0,0,0,1,1,0,1,0,0,1,0,579,0,8,587,0
107,32,7,265,79,0,0,0,0,0,1,0,0,0,0,0,0,0,0,1,0,0,385,0,2,387,0
108,69,4,302,95,0,0,0,0,0,1,0,0,0,2,1,0,0,0,0,0,0,474,0,7,481,1
109,67,5,305,70,0,0,0,0,0,0,0,0,0,1,0,0,0,0,0,0,1,449,0,4,453,0
110,65,8,191,98,0,0,1,0,0,0,0,0,0,0,0,0,0,1,0,0,0,364,0,4,368,0
111,131,10,229,117,0,0,0,0,0,0,0,0,0,0,0,0,1,0,0,0,0,488,0,2,490,0
112,127,11,287,162,0,2,0,2,0,0,0,0,0,1,0,0,0,2,0,0,0,594,0,13,607,0
113,104,12,195,165,0,0,1,0,0,0,1,0,0,0,0,0,0,0,0,0,0,478,0,3,481,0
114,99,9,240,148,1,0,1,0,1,0,0,0,0,0,0,0,0,0,0,0,0,499,0,3,502,0
115,90,6,184,96,0,1,0,0,0,0,0,1,1,0,0,0,0,0,0,0,0,379,0,4,383,0
116,75,11,206,105,1,0,1,0,0,0,0,0,0,0,0,0,0,0,0,0,0,399,0,3,402,0
117,135,21,247,229,0,1,2,0,1,0,2,1,0,0,2,1,1,1,1,0,0,645,0,0,645,0
118,117,27,151,155,0,1,0,0,0,3,0,0,1,1,0,0,2,0,0,0,0,458,0,0,458,0
119,159,26,224,279,0,1,0,0,0,0,0,1,0,3,0,0,0,0,1,1,0,695,0,2,697,0
120,138,17,227,160,0,0,0,0,0,1,0,0,0,0,0,0,0,0,1,0,1,545,0,2,547,0
121,105,20,271,268,0,0,0,0,0,0,0,0,0,0,0,0,0,1,1,0,1,667,0,4,671,0
122,134,31,251,172,0,0,0,0,0,0,1,0,0,0,1,0,2,0,0,0,0,592,0,3,595,0
123,116,24,291,180,0,0,2,0,0,0,0,0,0,0,0,1,0,0,0,0,0,614,0,4,618,0
124,121,29,199,187,0,0,0,1,0,0,0,0,1,0,0,0,0,0,3,1,0,542,0,4,546,0
125,155,19,216,227,1,0,1,0,0,0,0,0,0,0,1,0,0,0,0,1,1,622,0,2,624,0
126,76,22,260,181,0,0,0,1,0,2,1,0,1,0,1,1,2,0,0,0,0,548,0,4,552,0
127,75,15,199,191,0,0,0,0,1,0,0,1,0,0,1,0,0,1,0,0,0,484,0,1,485,0
128,112,11,269,312,0,1,0,0,0,0,0,0,0,0,0,0,2,0,0,1,0,708,0,1,709,0
129,103,11,219,294,0,0,0,0,0,0,0,0,0,0,1,0,1,0,1,2,0,632,0,7,639,0
130,125,21,197,175,0,0,0,0,0,0,0,0,0,0,0,1,0,0,0,0,0,519,0,1,520,0
131,81,25,176,200,1,0,2,0,0,1,0,0,0,0,2,1,0,0,0,0,0,489,0,3,492,0
132,114,14,210,143,0,0,0,0,0,0,0,0,0,0,0,0,0,0,0,0,0,481,0,0,481,0
133,121,10,215,176,1,0,0,0,0,0,0,0,0,0,0,1,0,0,0,1,0,525,0,4,529,0
134,83,26,189,197,0,0,0,0,0,0,0,1,0,1,0,0,0,1,0,0,0,498,0,2,500,0
135,81,28,277,305,1,0,0,1,1,0,0,0,0,0,0,0,0,0,2,0,0,696,0,4,700,0
136,65,12,226,212,0,0,0,0,0,0,0,0,1,0,0,1,0,0,1,0,0,518,0,3,521,0
137,96,27,268,258,2,0,0,0,0,0,1,0,0,1,1,2,0,2,2,2,0,662,0,0,662,0
138,87,45,281,279,1,1,0,0,0,0,0,0,1,0,0,0,0,0,1,1,0,697,0,2,699,0
139,80,29,270,258,0,0,0,0,0,0,0,0,0,0,0,0,0,0,1,0,1,639,0,2,641,0
140,49,18,175,201,0,0,0,0,0,0,1,1,0,0,0,1,0,0,1,0,0,447,0,4,451,0
141,79,18,222,177,1,1,0,1,0,1,1,0,0,0,0,0,0,0,0,0,0,501,0,2,503,0
142,85,21,224,194,0,0,1,0,0,0,0,0,0,1,0,0,0,0,0,0,0,526,0,4,530,0
143,96,10,375,215,1,0,1,0,0,0,0,0,0,1,0,0,1,1,1,1,1,704,0,7,711,0
144,99,27,190,248,1,2,2,1,0,1,0,0,0,0,0,0,0,0,0,0,0,571,0,2,573,0
145,105,31,261,227,0,0,0,0,0,0,0,1,0,0,0,0,0,0,0,0,0,625,0,5,630,0
146,68,16,221,187,0,0,0,0,0,1,1,0,0,0,0,0,1,0,0,1,0,496,0,3,499,0
147,164,24,206,321,3,2,0,1,1,0,1,1,1,0,1,0,0,1,0,0,0,727,0,0,727,0
148,136,20,181,253,0,0,0,0,0,0,0,1,0,0,0,0,1,0,0,2,0,594,0,4,598,0
149,150,14,270,277,0,1,0,0,0,1,2,0,1,0,0,0,0,0,1,2,1,720,0,2,722,0
150,203,13,155,259,0,0,1,0,0,1,1,0,1,0,0,0,0,0,2,0,0,636,0,0,636,0
151,179,15,126,209,1,0,1,0,0,0,0,1,0,0,0,0,2,0,0,0,0,534,0,0,534,0
152,ge 2 177,12,179,232,1,0,0,0,0,0,0,0,0,0,0,0,0,0,0,1,0,602,0,3,605,0
153,128,13,178,190,0,0,0,0,0,1,0,0,1,0,0,0,0,0,3,2,1,517,0,1,518,0
154,228,15,277,253,2,0,1,1,1,1,2,0,0,0,0,2,2,0,0,1,1,787,0,3,790,0
155,280,17,194,295,1,0,1,1,0,1,0,0,0,0,0,0,1,0,0,0,0,791,0,0,791,0
156,141,18,342,346,1,0,1,1,0,0,0,0,0,0,1,0,0,1,0,2,0,854,0,1,855,0
157,60,10,172,134,0,0,0,0,0,0,1,0,0,0,0,0,1,0,1,0,0,379,0,2,381,0
158,667,23,35,147,2,0,0,0,0,0,2,0,0,0,0,1,0,0,1,0,1,879,0,3,882,0
159,599,15,24,108,1,0,0,0,0,0,1,1,1,0,0,0,2,0,1,1,0,754,0,2,756,0
160,339,8,31,75,0,0,0,0,0,0,0,0,0,0,0,0,0,0,0,0,0,453,0,2,455,0
161,620,9,55,149,3,1,0,0,1,0,2,0,0,0,0,0,1,1,1,0,0,843,0,4,847,0
162,583,14,61,109,0,0,0,0,0,0,1,0,1,0,1,0,0,0,0,0,0,770,0,1,771,0
163,599,10,72,107,1,1,0,0,0,0,1,1,1,1,0,0,1,0,0,0,0,795,0,3,798,0
164,580,21,26,108,0,0,0,0,0,0,0,0,0,0,0,0,0,0,0,0,0,735,0,2,737,0
165,553,20,33,114,0,0,0,0,0,1,0,0,0,0,0,0,0,0,0,0,0,721,0,2,723,0
166,539,4,27,108,0,0,0,0,0,0,1,0,0,1,0,1,4,0,0,0,0,685,0,2,687,0
167,538,9,18,84,1,0,2,0,0,0,0,0,0,0,0,1,1,0,0,0,0,654,0,1,655,0
168,601,10,39,120,1,0,0,0,0,0,5,0,0,1,0,5,1,0,0,2,0,785,0,0,785,0
169,483,10,41,123,0,2,0,0,0,0,2,0,0,0,0,2,2,0,1,0,0,666,0,1,667,0
170,537,14,31,146,2,0,0,0,0,0,0,0,0,0,0,0,0,1,2,0,0,733,0,4,737,0
171,530,25,73,207,0,0,0,1,0,0,1,1,1,0,0,2,0,0,1,0,0,842,0,3,845,0
172,559,10,56,148,0,0,1,1,0,0,2,1,0,0,0,0,0,0,3,0,0,781,0,3,784,0
173,466,16,67,201,2,0,0,0,0,0,4,0,1,0,0,1,1,1,1,0,0,761,0,3,764,0
174,607,13,36,147,0,0,0,0,0,0,1,0,0,0,1,0,1,0,0,0,0,806,0,2,808,0
175,550,7,21,100,1,0,0,0,0,1,1,0,0,0,1,0,1,0,0,0,0,683,0,2,685,0
176,613,9,15,99,1,0,0,0,0,0,2,0,0,0,0,0,1,0,0,0,0,740,0,3,743,0
177,563,13,14,95,0,0,0,0,1,0,1,0,0,0,0,0,0,0,5,0,1,693,0,1,694,0
178,778,18,15,156,1,0,0,0,0,1,0,0,0,0,0,0,1,0,5,0,0,975,0,1,976,0
179,578,13,13,77,0,0,0,0,0,1,2,0,1,0,0,0,1,0,0,0,0,686,0,3,689,0
180,808,14,25,199,0,0,0,0,0,0,2,0,0,0,0,3,4,0,6,0,0,1061,0,2,1063,0
181,576,8,44,118,1,0,1,0,0,0,1,1,1,0,0,0,0,0,0,0,0,751,0,2,753,0
182,741,21,37,140,0,0,0,0,1,0,2,0,0,0,0,1,0,0,11,1,0,955,0,1,956,0
183,623,2,17,113,1,0,0,1,0,0,1,1,1,0,0,0,0,0,4,0,0,764,0,6,770,0
184,141,29,275,392,0,0,0,0,0,0,0,0,1,0,0,0,3,0,1,0,0,842,0,2,844,0
185,140,19,234,303,0,0,0,0,1,0,1,0,0,0,1,1,4,2,3,2,0,711,0,4,715,0
186,168,27,232,337,1,1,0,0,1,0,0,0,0,0,0,0,1,0,0,1,0,769,0,1,770,0
187,218,29,212,223,0,0,1,0,0,0,0,0,0,2,0,1,0,0,1,2,0,689,0,3,692,0
188,145,30,281,362,1,0,1,0,0,0,0,0,1,0,0,0,1,1,1,1,0,825,0,5,830,0
189,139,43,242,264,1,0,1,0,1,0,0,1,0,2,0,1,3,1,1,0,0,700,0,1,701,0
190,134,22,198,278,0,0,0,0,0,0,0,0,0,0,0,1,1,0,2,0,1,637,0,1,638,0
191,92,25,190,365,0,1,0,0,0,1,1,0,0,2,0,0,1,0,0,0,0,678,0,2,680,0
192,117,34,262,354,0,0,0,0,0,0,0,0,0,0,0,0,2,0,0,0,0,769,0,6,775,0
193,120,16,177,316,0,0,1,1,0,0,1,0,1,1,0,2,1,2,2,5,0,646,0,0,646,0
194,113,28,255,370,0,0,1,0,0,0,0,1,0,0,0,0,1,1,2,3,0,775,0,3,778,0
195,125,26,211,243,1,0,0,0,0,2,0,0,0,0,0,1,2,1,0,2,0,614,0,5,619,0
196,157,42,274,371,2,0,0,0,0,0,1,1,0,1,0,0,3,0,1,4,0,857,0,2,859,0
197,139,20,249,299,3,0,1,0,0,0,0,0,0,1,1,2,0,1,1,0,0,717,0,4,721,0
198,133,45,284,458,2,0,0,0,0,0,1,0,0,0,0,1,1,1,0,0,1,927,0,3,930,0
199,141,23,214,273,1,0,0,1,0,0,0,0,2,0,0,1,1,1,0,1,0,659,0,2,661,0
200,159,21,186,286,1,1,1,0,0,0,2,0,0,0,0,2,0,0,1,1,0,661,0,7,668,0
201,146,42,348,278,1,0,1,0,0,0,1,0,2,0,1,1,1,0,1,1,0,824,0,0,824,0
202,140,32,310,278,1,0,1,0,0,1,0,0,0,1,0,2,0,1,0,0,2,769,0,0,769,0
203,98,36,294,312,2,1,0,0,0,0,1,0,1,0,0,1,1,1,0,1,0,749,0,2,751,0
204,103,15,293,236,0,0,0,0,0,0,1,1,2,1,0,0,0,0,0,0,0,652,0,2,654,0
205,108,14,209,209,0,0,0,0,0,0,0,0,0,0,0,0,1,0,0,1,0,542,0,2,544,0
206,139,41,299,312,2,0,0,0,1,0,2,0,0,1,0,0,1,1,0,0,0,799,0,4,803,0
207,78,14,253,202,0,1,0,0,0,0,1,0,0,0,1,0,0,0,0,1,0,551,0,5,556,0
208,159,16,221,321,0,0,0,0,0,0,0,0,0,0,1,0,1,0,0,0,0,719,0,1,720,0
209,352,19,112,338,1,0,0,0,1,1,1,0,1,0,0,2,3,0,0,0,0,831,0,4,835,0
210,203,9,151,218,0,0,0,0,0,1,1,0,0,0,0,1,1,1,0,1,0,587,0,0,587,0
211,223,13,86,119,2,0,0,0,0,0,1,0,0,0,0,0,0,0,0,0,0,444,0,0,444,0
212,251,35,214,238,1,0,0,1,0,0,0,0,1,0,0,0,0,0,1,0,0,742,0,1,743,0
213,265,25,166,215,0,0,0,0,0,2,0,0,2,0,0,0,1,0,0,0,1,677,0,1,678,0
214,275,20,168,293,0,0,0,2,0,0,2,0,0,0,1,0,2,0,1,1,0,765,0,2,767,0
215,195,33,197,284,0,0,0,0,0,0,0,1,0,0,3,1,0,0,0,0,0,714,0,3,717,0
216,191,24,141,208,0,0,0,0,0,0,1,1,1,0,0,0,0,0,0,0,0,567,0,2,569,0
217,248,18,76,187,0,1,0,0,0,0,0,0,1,0,0,1,2,0,0,0,0,534,0,2,536,0
218,292,29,144,268,1,0,0,0,0,0,1,0,1,0,0,1,0,1,0,0,0,738,0,3,741,0
219,307,22,112,231,0,0,0,1,0,0,0,0,1,0,0,2,2,0,1,0,0,679,0,5,684,0
220,169,15,177,203,1,0,0,0,0,0,1,0,0,0,1,0,0,0,0,0,0,567,0,1,568,0
221,146,40,217,350,1,0,2,1,0,0,1,1,0,0,0,1,0,1,0,1,0,762,0,2,764,0
222,143,3,109,125,0,0,0,0,0,0,1,0,0,1,0,1,0,0,0,0,0,383,0,0,383,0
223,131,21,231,264,0,0,2,2,0,1,0,0,0,0,0,1,0,0,1,1,0,655,0,2,657,0
224,329,17,173,269,0,1,0,1,0,0,1,0,1,0,0,2,1,0,0,0,0,795,0,2,797,0
225,337,16,177,290,1,0,1,0,1,0,0,0,0,1,0,1,1,1,1,0,0,828,0,6,834,0
226,294,14,183,242,0,0,0,0,1,1,1,0,0,0,0,0,0,0,0,0,0,736,0,3,739,0
227,137,39,327,272,0,2,3,0,0,3,0,2,0,1,1,1,0,2,1,1,1,793,0,2,795,0
228,ge 3 387,15,133,242,0,0,0,1,0,0,2,0,0,0,0,1,0,1,0,1,0,783,0,3,786,0
229,278,9,109,187,1,0,0,1,0,0,0,0,0,0,0,0,0,0,1,0,0,586,0,1,587,0
230,165,34,292,416,4,0,0,0,1,0,0,0,0,0,0,0,0,0,0,0,0,912,0,5,917,0
231,114,27,302,398,0,0,0,0,0,0,0,0,1,0,0,0,0,0,1,1,0,844,0,4,848,0
232,167,17,164,221,0,0,0,0,0,0,2,0,0,0,0,0,0,0,0,0,0,571,0,3,574,0
233,110,19,190,264,2,0,1,0,0,0,0,0,0,0,0,0,0,0,2,0,0,588,0,3,591,0
234,113,21,175,286,0,0,0,0,0,0,0,0,0,0,0,0,2,0,0,0,0,597,0,1,598,0
235,128,30,298,341,1,2,0,0,1,1,0,0,0,1,0,1,0,0,1,0,0,805,0,1,806,0
236,101,19,217,236,0,0,1,0,0,0,1,0,0,1,1,0,0,0,1,0,0,578,0,0,578,0
237,159,37,262,325,2,0,1,1,0,0,2,0,2,2,0,0,0,1,1,0,0,795,0,3,798,0
238,197,14,230,272,0,1,0,0,0,0,0,0,0,1,0,0,0,0,0,0,0,715,0,2,717,0
239,160,25,212,350,0,1,1,0,0,0,0,1,0,0,0,0,1,1,1,2,0,755,0,5,760,0
240,130,23,213,304,1,0,0,0,0,0,0,0,0,0,0,1,0,2,0,1,0,675,0,2,677,0
241,168,15,182,302,0,0,1,1,0,0,1,1,0,0,0,0,1,0,0,0,0,672,0,0,672,0
242,159,23,221,331,0,0,0,0,0,1,0,0,0,0,1,0,0,0,1,1,1,739,0,2,741,0
243,192,19,227,213,1,0,0,0,0,1,0,0,0,0,0,0,0,0,2,1,0,656,0,2,658,0
244,144,21,252,225,1,1,0,0,0,2,0,0,0,1,2,2,2,1,1,1,0,656,0,5,661,0
245,245,45,369,274,1,1,0,0,0,1,0,0,1,1,0,1,0,1,2,0,0,942,0,1,943,0
246,144,23,453,260,0,0,1,0,0,0,0,0,0,0,0,0,1,0,0,1,0,883,0,2,885,0
247,238,37,228,316,1,0,0,0,0,0,0,0,1,0,0,0,1,1,2,1,1,827,0,4,831,0
248,188,25,360,302,1,0,0,1,0,1,0,0,0,0,0,0,2,0,2,0,0,882,0,1,883,0
249,181,37,195,265,0,0,0,0,0,0,0,0,0,0,1,0,2,0,0,1,0,682,0,2,684,0
250,216,33,305,268,1,0,1,0,1,0,1,0,0,0,2,1,0,0,1,0,0,830,0,6,836,0
251,118,15,330,377,0,0,0,1,1,1,0,0,0,2,1,3,1,1,3,1,1,856,0,5,861,0
252,126,14,247,185,1,0,1,0,0,0,1,0,1,0,0,1,2,0,2,1,0,582,0,3,585,0
253,188,34,413,285,2,0,0,1,1,0,0,0,3,1,0,2,0,0,0,1,0,931,0,4,935,0
254,141,21,251,230,0,0,1,0,0,1,0,0,0,0,1,0,0,1,0,0,0,647,0,6,653,0
255,247,20,476,308,2,1,0,0,0,0,0,2,0,1,0,2,2,0,0,0,0,1061,0,3,1064,0
256,190,16,287,273,0,1,0,1,1,0,1,0,2,1,1,1,3,0,2,2,1,783,0,1,784,0
257,188,26,397,275,1,0,0,1,1,0,0,0,1,2,0,2,0,0,2,1,0,897,0,5,902,0
258,168,21,280,286,2,0,1,0,0,1,0,0,1,0,0,0,1,0,1,0,1,763,0,2,765,0
259,100,7,131,209,0,0,0,0,0,0,0,0,0,0,0,0,0,1,0,2,0,450,0,1,451,0
260,190,24,290,260,1,0,0,0,1,0,4,0,0,0,0,2,2,0,0,2,0,776,0,3,779,0
261,146,25,324,282,3,0,0,0,0,1,0,0,1,0,0,1,2,0,0,1,0,786,0,2,788,0
262,105,19,349,232,1,0,0,0,0,0,0,1,0,1,0,1,1,1,0,1,0,712,0,0,712,0
263,140,29,367,333,0,0,0,0,0,0,2,0,0,0,1,0,1,2,1,1,1,878,0,2,880,0
264,146,19,468,301,0,0,1,0,0,0,0,1,0,2,0,0,2,4,2,0,0,946,0,3,949,0
265,182,20,380,372,2,0,0,2,1,0,1,1,0,0,0,0,1,1,0,0,0,963,0,7,970,0
266,167,37,345,381,0,0,0,0,0,0,0,0,1,0,0,1,1,0,2,0,0,935,0,9,944,0
267,152,22,409,364,0,0,0,0,0,0,1,0,1,1,0,0,1,0,0,0,0,951,0,4,955,0
268,143,21,376,286,1,0,0,2,0,1,0,0,0,0,0,1,0,2,0,0,0,833,0,6,839,0
269,142,10,425,224,1,0,0,0,0,0,0,0,0,0,0,1,0,0,0,0,0,803,0,4,807,0
270,127,10,356,227,0,0,0,0,0,0,2,0,1,0,0,2,0,0,0,0,0,725,0,1,726,0
271,123,15,372,220,0,1,0,0,0,0,0,0,0,2,0,0,0,0,0,1,0,734,0,4,738,0
272,198,17,320,222,0,0,1,0,0,0,2,0,0,0,0,1,0,0,0,0,0,761,0,2,763,0
273,170,23,344,253,0,0,0,0,0,0,0,0,1,0,0,0,1,0,0,0,0,792,0,3,795,0
274,146,14,291,191,1,0,1,0,0,0,0,0,0,0,0,1,1,1,0,1,0,648,0,2,650,0
275,149,22,495,380,2,0,0,0,0,0,0,0,1,1,0,1,0,0,0,0,0,1051,0,2,1053,0
276,149,16,481,307,1,0,1,0,1,1,0,0,0,1,0,1,1,0,0,0,0,960,0,5,965,0
277,193,14,363,262,0,1,1,0,0,0,0,1,1,0,1,0,0,0,0,0,0,837,0,2,839,0
278,127,5,397,129,0,0,1,0,1,0,2,0,0,0,0,0,1,0,0,0,0,663,0,0,663,0
279,110,14,343,146,0,0,0,0,0,0,0,0,0,0,0,0,0,0,0,0,0,613,0,0,613,0
280,148,11,477,210,1,0,0,0,1,0,1,1,0,1,0,1,0,1,3,1,1,858,0,4,862,0
281,158,20,314,197,3,2,0,1,0,1,1,0,0,0,0,0,0,0,0,1,0,698,0,4,702,0
282,134,4,328,147,0,0,0,0,0,0,1,0,0,1,0,1,0,0,1,0,0,617,0,0,617,0
283,177,29,171,111,0,0,1,0,0,1,1,0,0,0,0,0,0,0,0,0,0,491,0,1,492,0
284,206,27,253,278,0,0,0,1,0,0,2,1,0,0,2,0,0,1,0,0,0,771,0,3,774,0
285,152,18,200,127,0,0,0,0,1,0,1,0,0,0,0,0,0,0,0,1,0,500,0,0,500,0
286,198,19,243,168,1,0,0,0,0,0,2,0,0,0,0,0,0,0,2,0,0,633,0,8,641,0
287,110,14,159,94,0,1,0,0,0,0,0,0,0,1,0,0,0,0,1,0,0,380,0,2,382,0
288,153,13,205,141,0,0,0,0,0,0,2,0,0,0,0,0,0,0,0,0,0,514,0,3,517,0
289,207,24,269,196,0,0,0,0,0,0,0,1,0,1,1,2,0,1,0,0,0,702,0,7,709,0
290,109,10,163,115,1,0,0,1,0,0,1,0,0,1,0,2,0,0,1,0,0,404,0,3,407,0
291,250,26,278,246,0,0,0,0,0,0,1,0,0,0,0,0,0,0,2,0,0,803,0,5,808,0
292,197,23,249,178,1,0,0,0,0,0,1,0,0,0,0,0,0,1,0,0,0,650,0,4,654,0
293,119,20,185,141,0,0,0,0,0,0,0,0,1,0,0,1,0,0,1,0,0,468,0,6,474,0
294,157,34,424,289,1,0,0,0,1,0,0,0,0,4,0,0,0,0,1,1,0,912,0,6,918,0
295,104,7,104,93,0,0,0,1,0,0,0,0,1,0,0,0,0,0,0,0,0,310,0,3,313,0
296,111,20,156,111,0,0,0,0,0,0,0,0,0,0,0,0,0,0,0,1,0,399,0,1,400,0
297,133,7,171,103,0,0,0,0,0,0,0,0,0,0,1,0,0,0,0,1,0,416,0,3,419,0
298,183,25,221,197,0,1,0,1,0,0,1,0,0,0,0,1,0,1,0,1,1,633,0,5,638,0
299,167,20,291,173,0,0,1,1,0,0,1,0,0,0,0,0,0,0,1,0,0,655,0,2,657,0
300,164,23,261,242,1,0,0,0,0,0,0,0,0,0,0,1,0,0,0,0,0,692,0,3,695,0
301,148,18,397,250,1,0,1,0,0,0,3,0,0,0,0,2,0,0,1,0,0,821,0,0,821,0
302,105,10,244,174,0,3,0,1,0,0,0,0,1,1,1,0,0,0,0,0,0,540,0,1,541,0
303,149,23,307,232,0,0,1,0,0,0,0,1,0,2,0,0,0,0,0,0,1,716,0,2,718,0
304,ge 4 241,20,231,215,1,0,0,1,0,0,1,0,0,0,0,0,1,0,0,1,0,712,0,0,712,0
305,243,16,376,215,0,0,0,0,1,1,1,1,0,1,1,0,2,1,2,0,0,861,0,1,862,0
306,178,11,162,136,0,0,2,0,0,1,0,0,1,0,0,1,0,0,1,0,1,494,0,1,495,0
307,113,8,247,129,0,0,0,0,0,0,0,0,0,0,0,0,0,0,0,0,0,497,0,4,501,0
308,329,38,324,331,1,1,0,0,0,0,0,0,1,1,1,1,1,0,1,0,0,1030,0,3,1033,0
309,243,25,338,341,1,0,0,0,0,0,0,0,2,0,0,0,1,0,1,1,0,953,0,2,955,0
310,97,12,197,138,0,1,2,1,0,0,0,0,0,0,0,2,0,0,1,0,0,451,0,0,451,0
311,204,13,253,221,1,0,0,0,0,0,0,0,0,1,0,0,2,0,0,0,0,695,0,1,696,0
312,168,23,281,220,0,1,0,0,0,0,0,0,1,0,0,0,1,0,1,1,0,697,0,1,698,0
313,183,12,218,248,1,0,0,0,0,0,0,0,0,0,0,0,1,0,0,0,0,663,0,5,668,0
314,206,9,197,139,2,0,0,0,1,0,0,0,0,1,0,0,3,0,1,0,0,559,0,2,561,0
315,165,19,247,249,1,0,0,1,0,1,0,0,0,2,0,0,0,1,1,0,0,687,0,0,687,0
316,192,19,248,207,1,0,0,2,0,0,2,0,0,0,0,0,0,0,1,1,0,673,0,7,680,0
317,229,8,201,149,1,0,1,0,0,0,0,0,1,1,0,0,0,0,1,0,0,592,0,1,593,0
318,160,15,311,176,1,0,0,0,0,0,1,0,0,2,0,1,0,0,0,1,0,668,0,2,670,0
319,197,22,246,206,0,0,1,0,0,1,0,0,0,1,0,0,0,0,0,0,0,674,0,5,679,0
320,132,18,218,201,2,0,0,0,0,0,0,0,0,0,0,0,0,0,0,0,0,571,0,2,573,0
321,174,16,216,218,1,0,0,0,0,1,0,0,0,0,0,0,0,0,0,0,0,626,0,1,627,0
322,245,19,308,223,0,0,0,1,0,0,2,0,0,0,0,0,2,0,1,2,2,805,0,3,808,0
323,150,10,199,174,0,0,0,1,0,0,0,0,0,0,0,0,0,0,0,1,0,535,0,5,540,0
324,115,17,257,219,1,0,0,1,0,1,0,1,1,0,1,0,1,0,1,0,0,616,0,6,622,0
325,212,17,143,149,0,0,0,0,0,0,0,0,0,0,0,0,2,0,0,2,0,525,0,1,526,0
326,188,31,266,203,0,0,0,0,1,1,2,0,0,0,0,1,1,0,0,0,0,694,0,6,700,0
327,236,24,292,246,0,0,0,0,0,1,1,1,0,1,0,0,0,0,0,0,0,802,0,6,808,0
328,159,18,260,212,0,1,0,0,0,0,1,1,0,0,1,1,0,0,1,0,0,655,0,2,657,0
329,290,12,335,236,1,0,1,0,0,0,0,0,0,0,0,0,0,0,1,0,0,876,0,6,882,0
330,214,24,252,203,1,0,1,0,0,0,1,0,0,1,0,1,3,0,0,0,0,701,0,5,706,0
331,243,24,217,316,0,1,0,1,0,1,0,0,2,0,0,1,0,0,0,0,0,806,0,0,806,0
332,180,15,262,177,0,0,0,0,0,1,1,0,0,1,0,1,1,0,3,1,0,643,0,2,645,0
333,156,46,326,269,1,0,0,0,0,0,0,1,0,0,0,0,1,0,1,1,0,802,0,3,805,0
334,122,21,219,138,1,0,0,0,0,0,0,0,0,0,0,0,1,0,3,0,0,505,0,4,509,0
335,314,13,140,145,1,0,0,0,0,0,0,1,0,0,0,0,0,0,0,0,0,614,0,1,615,0
336,144,9,293,228,0,0,1,0,0,0,0,0,0,0,0,0,0,0,0,0,0,675,0,2,677,0
337,518,15,103,179,0,0,0,0,0,0,1,0,1,0,0,0,1,0,0,0,0,818,0,5,823,0
338,293,16,259,248,0,1,0,1,0,0,1,0,0,0,0,0,1,0,0,1,0,821,0,4,825,0
339,203,14,312,223,1,0,1,0,0,2,1,0,0,0,0,0,1,0,0,0,0,758,0,6,764,0
340,153,22,311,180,2,0,0,0,0,0,0,0,1,0,0,0,1,0,1,0,0,671,0,4,675,0
341,256,19,187,218,0,0,0,0,0,0,1,0,1,1,0,2,0,0,0,0,0,685,0,5,690,0
342,224,16,252,179,0,0,0,0,0,0,1,0,0,1,0,0,0,0,1,0,0,674,0,4,678,0
343,211,14,163,181,0,1,1,0,1,0,0,0,0,0,0,0,0,0,2,0,1,575,0,5,580,0
344,218,15,283,239,0,0,0,2,0,0,0,0,0,1,1,0,1,0,0,0,0,760,0,4,764,0
345,162,9,305,240,1,0,0,0,1,0,1,0,0,0,0,0,0,0,0,0,0,719,0,3,722,0
346,110,9,279,186,1,0,2,0,1,0,0,0,1,0,1,0,0,0,0,0,0,590,0,6,596,0
347,119,14,347,215,0,1,0,1,1,0,0,0,0,0,2,1,0,0,1,1,0,703,0,2,705,1
348,230,24,212,227,0,1,0,1,0,0,0,1,1,0,0,2,0,0,0,1,0,700,0,6,706,0
349,239,22,222,194,0,0,1,1,0,0,1,0,1,2,1,1,0,0,0,0,0,685,0,3,688,0
350,233,19,296,233,0,0,0,0,0,1,1,0,0,0,0,0,0,0,1,0,0,784,0,6,790,0
351,212,15,307,243,0,0,0,0,1,1,0,0,0,0,0,0,1,2,0,0,0,782,0,5,787,0
352,208,31,307,242,1,1,0,0,0,1,0,0,0,0,0,1,1,0,0,0,0,793,0,0,793,0
353,472,11,97,176,0,0,0,0,0,0,3,0,1,0,0,0,2,0,2,1,0,765,0,1,766,0
354,404,22,121,239,1,0,0,0,0,1,0,0,0,0,0,0,3,1,1,0,0,793,0,4,797,0
355,526,14,68,185,0,0,1,1,1,1,1,0,1,0,1,1,0,0,0,0,0,801,0,4,805,0
356,460,10,109,203,0,1,0,0,0,0,2,0,1,1,0,0,2,0,0,0,0,789,0,3,792,0
357,422,11,122,168,0,0,0,0,0,0,2,0,0,1,0,1,0,0,0,0,0,727,0,3,730,0
358,235,8,119,163,1,0,0,0,0,0,0,0,0,0,0,0,1,0,0,0,0,527,0,4,531,0
359,572,20,60,154,1,0,0,0,1,0,2,0,0,1,0,1,2,0,0,0,0,814,0,4,818,0
360,408,13,144,167,0,0,0,1,0,0,0,0,0,0,0,1,1,0,0,0,0,735,0,2,737,0
361,449,8,55,120,1,0,0,0,0,0,2,0,1,1,0,1,1,0,0,1,0,640,0,0,640,0
362,423,12,122,160,1,0,0,0,0,0,4,0,1,0,0,0,4,0,0,0,0,727,0,1,728,0
363,480,18,71,163,0,0,1,0,0,0,1,0,0,0,1,0,1,0,0,0,0,736,0,1,737,0
364,171,9,111,86,0,0,0,0,0,0,0,0,0,0,0,0,1,0,0,0,0,378,0,2,380,0
365,565,4,76,166,0,1,0,0,0,0,1,0,0,0,0,1,1,0,1,0,0,816,0,1,817,1
366,423,21,132,214,1,0,0,0,0,0,1,0,1,1,1,0,0,0,2,0,0,797,0,4,801,2
367,198,13,140,128,0,0,0,0,0,0,0,0,0,0,1,0,0,0,0,0,0,480,0,2,482,0
368,169,14,232,161,0,0,0,0,0,0,0,0,2,1,0,0,0,0,0,0,0,579,0,3,582,0
369,229,15,170,141,0,0,0,0,0,0,0,0,0,0,0,0,0,0,0,1,0,556,0,5,561,0
370,383,25,164,186,0,0,1,1,0,1,0,1,0,0,0,0,0,0,0,1,0,763,0,5,768,0
371,450,31,139,179,0,0,1,0,1,0,0,0,0,0,0,0,0,0,0,0,0,801,0,6,807,0
